0.006398,0.007539,0.238997,0.053043,0.000004,0.051255,0.063328,0.081780
0.006443,0.007691,0.236725,0.052269,0.000003,0.051735,0.062624,0.081667
0.006480,0.007819,0.234801,0.051561,0.000003,0.052142,0.062112,0.081647
0.006461,0.007769,0.229968,0.050388,0.000002,0.052778,0.061452,0.080911
0.006471,0.007749,0.228607,0.049607,0.000002,0.053098,0.061169,0.079005
0.006479,0.007732,0.227455,0.049151,0.000001,0.053369,0.060929,0.076833
0.006662,0.008371,0.216943,0.047690,0.000001,0.053956,0.064399,0.072048
0.006716,0.008542,0.213007,0.047112,0.000001,0.054095,0.066245,0.070874
0.006854,0.009002,0.192568,0.045406,0.000000,0.054029,0.071325,0.068296
0.006878,0.009077,0.187892,0.045028,0.000000,0.054018,0.072478,0.068198
0.006851,0.009585,0.180312,0.044185,0.000000,0.054002,0.074278,0.067979
0.006680,0.010413,0.173485,0.043295,0.000000,0.053990,0.075848,0.067764
0.006473,0.011113,0.166389,0.042386,0.000000,0.053981,0.077594,0.063537
0.006325,0.011614,0.162716,0.041891,0.000000,0.053820,0.078429,0.058567
0.006268,0.011808,0.163159,0.043374,0.000000,0.053687,0.078305,0.056854
0.006125,0.012112,0.163852,0.046509,0.000000,0.053722,0.077381,0.054747
0.006017,0.012230,0.164121,0.048029,0.000000,0.051459,0.076860,0.053884
0.006044,0.012414,0.162623,0.050404,0.000000,0.048035,0.076466,0.052566
0.006055,0.012486,0.162337,0.051377,0.000000,0.047852,0.075677,0.052601
0.006018,0.012546,0.162095,0.052201,0.000000,0.047697,0.075009,0.052865
0.005937,0.012005,0.160964,0.054599,0.000000,0.046558,0.073358,0.057285
0.005918,0.011801,0.160569,0.055201,0.000000,0.046040,0.073128,0.057566
0.005902,0.011629,0.161609,0.055716,0.000000,0.045601,0.072766,0.057803
0.005836,0.011411,0.171634,0.057268,0.000000,0.044915,0.071866,0.057605
0.005815,0.011351,0.175727,0.057085,0.000000,0.043039,0.070293,0.057500
0.005776,0.011299,0.179191,0.056077,0.000000,0.042365,0.069540,0.057388
0.005825,0.011391,0.186991,0.053417,0.000000,0.038316,0.064985,0.060657
0.005848,0.011248,0.186602,0.052906,0.000000,0.037554,0.063876,0.062424
0.005810,0.011025,0.189237,0.052830,0.000000,0.036363,0.063349,0.065179
0.005648,0.010938,0.188259,0.053034,0.000000,0.034762,0.063661,0.065752
0.005329,0.010803,0.181886,0.053255,0.000000,0.032705,0.065234,0.066648
0.004824,0.010919,0.178685,0.052212,0.000000,0.030500,0.066540,0.068127
0.004604,0.010756,0.178087,0.052573,0.000000,0.029359,0.065731,0.068746
0.004564,0.010693,0.177779,0.052766,0.000000,0.028916,0.065121,0.068880
0.004255,0.010371,0.175714,0.052181,0.000000,0.026449,0.064748,0.066804
0.004227,0.010267,0.175375,0.051950,0.000000,0.027022,0.065851,0.067050
0.004411,0.010794,0.174061,0.052147,0.000567,0.029369,0.069999,0.067528
0.004482,0.010902,0.174227,0.052467,0.001071,0.030716,0.071260,0.067944
0.004542,0.010994,0.173940,0.052739,0.001499,0.032077,0.073553,0.068876
0.004906,0.011192,0.175567,0.053831,0.002842,0.035031,0.085382,0.072343
0.005027,0.011239,0.177184,0.054407,0.003240,0.035730,0.090021,0.073733
0.005130,0.011433,0.178038,0.054894,0.003928,0.036249,0.093841,0.074422
0.005266,0.013276,0.182458,0.054917,0.005004,0.037060,0.099296,0.075800
0.005636,0.014753,0.190238,0.055364,0.006339,0.037866,0.102181,0.080197
0.006489,0.015625,0.201328,0.056861,0.008213,0.040852,0.103760,0.095771
0.006689,0.015832,0.203640,0.057812,0.009121,0.041558,0.104949,0.099297
0.007748,0.016154,0.207709,0.059867,0.010652,0.046258,0.111778,0.107271
0.009380,0.015174,0.211597,0.062193,0.013578,0.054249,0.121924,0.121079
0.009822,0.014877,0.212085,0.062706,0.014494,0.056140,0.124636,0.125746
0.010196,0.014625,0.212499,0.063181,0.015270,0.057740,0.126931,0.129696
0.011303,0.014232,0.211204,0.063767,0.016482,0.061305,0.130772,0.137613
0.011819,0.014079,0.208834,0.062320,0.017071,0.062689,0.134723,0.144038
0.012828,0.013841,0.205704,0.058747,0.018153,0.066016,0.141598,0.156382
0.014051,0.013604,0.220667,0.054081,0.020067,0.072205,0.156738,0.179754
0.014597,0.013548,0.226510,0.053256,0.020589,0.073880,0.161227,0.186220
0.015086,0.014478,0.231456,0.052736,0.021031,0.078050,0.166020,0.191458
0.016796,0.017464,0.240907,0.051762,0.023121,0.085771,0.177623,0.197143
0.018028,0.018623,0.244770,0.051568,0.023934,0.088952,0.184414,0.201643
0.019072,0.019604,0.248039,0.051403,0.024623,0.091556,0.190246,0.206540
0.019955,0.021099,0.249432,0.051180,0.025960,0.093760,0.195551,0.211797
0.024753,0.024349,0.243424,0.050082,0.028050,0.097206,0.205631,0.221745
0.028480,0.025921,0.240063,0.049348,0.028861,0.098302,0.211363,0.227457
0.037761,0.029130,0.236509,0.047864,0.030620,0.100907,0.222998,0.243428
0.042009,0.031701,0.241411,0.047818,0.031705,0.107515,0.230404,0.250529
0.045211,0.033543,0.242439,0.047837,0.034166,0.115458,0.236633,0.261152
0.046664,0.034258,0.241562,0.047324,0.036338,0.118655,0.241476,0.269144
0.048183,0.034863,0.240613,0.047205,0.038177,0.121362,0.247107,0.279056
0.051930,0.036641,0.236871,0.046224,0.043096,0.126760,0.268152,0.310712
0.053215,0.038693,0.233961,0.045571,0.045198,0.128126,0.274295,0.319820
0.056867,0.040430,0.230230,0.044580,0.046978,0.130292,0.279870,0.330643
0.064935,0.045540,0.222004,0.042466,0.054828,0.140653,0.297168,0.368527
0.066937,0.046749,0.220491,0.042092,0.057178,0.144772,0.302968,0.380813
0.068632,0.047773,0.219210,0.042173,0.061497,0.148295,0.310989,0.391854
0.081425,0.050078,0.214708,0.041554,0.079784,0.160267,0.340696,0.433674
0.084831,0.050297,0.214368,0.041087,0.082800,0.163157,0.347987,0.444544
0.093614,0.051411,0.217267,0.040078,0.091997,0.182097,0.360324,0.470301
0.095808,0.051900,0.217135,0.039836,0.096662,0.188873,0.363239,0.477205
0.099629,0.052314,0.217610,0.039789,0.101385,0.196871,0.368127,0.486201
0.107143,0.052403,0.217469,0.039666,0.108117,0.218409,0.383700,0.508103
0.114638,0.053459,0.216815,0.039943,0.116172,0.236979,0.400769,0.529988
0.127712,0.054742,0.215607,0.042387,0.125771,0.262958,0.421421,0.555434
0.133435,0.055579,0.215240,0.044446,0.128425,0.270820,0.427023,0.560135
0.138743,0.056288,0.215349,0.046891,0.130827,0.277475,0.430529,0.566963
0.158693,0.062441,0.220706,0.061608,0.143587,0.297990,0.442493,0.584865
0.164068,0.063951,0.224950,0.068101,0.150704,0.304833,0.448702,0.589083
0.172196,0.065229,0.229759,0.073895,0.156796,0.312501,0.453342,0.595530
0.185828,0.068136,0.237678,0.085760,0.169190,0.327451,0.462093,0.607739
0.201098,0.073458,0.246454,0.095806,0.187229,0.337692,0.474745,0.617482
0.208605,0.076289,0.250445,0.099752,0.194754,0.345009,0.480429,0.621014
0.234176,0.085020,0.260593,0.108746,0.214000,0.371629,0.498841,0.627555
0.245199,0.088714,0.259285,0.111457,0.221568,0.381061,0.505216,0.629710
0.256340,0.091842,0.255755,0.116168,0.228321,0.389046,0.511824,0.630410
0.273666,0.097415,0.251630,0.127330,0.238851,0.406231,0.525948,0.634250
0.281643,0.098796,0.252704,0.134843,0.246644,0.414316,0.530453,0.636192
0.289586,0.099262,0.253227,0.142059,0.253658,0.421730,0.533927,0.637764
0.302491,0.102390,0.255635,0.155678,0.265652,0.433401,0.540846,0.642560
0.313631,0.105999,0.260453,0.167512,0.275520,0.445586,0.552586,0.649734
0.319948,0.106782,0.262871,0.172389,0.280691,0.452133,0.558165,0.652721
0.352414,0.109886,0.277990,0.189988,0.319098,0.474898,0.585263,0.665930
0.360685,0.111939,0.278171,0.192988,0.328643,0.479479,0.593390,0.669066
0.383998,0.115216,0.274269,0.206843,0.352279,0.492149,0.613803,0.671805
0.392896,0.116457,0.273555,0.212336,0.361350,0.496765,0.619677,0.670207
0.402550,0.117930,0.272950,0.219193,0.369314,0.500834,0.623758,0.668206
0.412448,0.119178,0.271985,0.224666,0.376613,0.507707,0.625959,0.664883
0.430328,0.121782,0.273372,0.233364,0.388443,0.525377,0.628794,0.657793
0.439105,0.123405,0.274274,0.236747,0.395187,0.535552,0.632660,0.655366
0.457936,0.122990,0.279739,0.245652,0.420340,0.563578,0.641095,0.651658
0.469805,0.124301,0.284220,0.253146,0.434428,0.582495,0.646769,0.644662
0.476054,0.125308,0.287196,0.257909,0.440406,0.592352,0.649020,0.640161
0.490343,0.129299,0.295181,0.271605,0.452590,0.616612,0.652340,0.628911
0.492857,0.131607,0.298993,0.276001,0.456558,0.621990,0.655493,0.624680
0.495600,0.133491,0.302585,0.280569,0.460137,0.626508,0.658802,0.621105
0.505343,0.137972,0.308971,0.290838,0.468712,0.633717,0.662544,0.607054
0.509490,0.138984,0.308343,0.293285,0.470703,0.633464,0.662499,0.602737
0.513655,0.140839,0.307811,0.295610,0.472331,0.631941,0.663881,0.599869
0.518039,0.148373,0.308943,0.300102,0.475751,0.619129,0.653671,0.589870
0.519851,0.155399,0.308516,0.302001,0.474529,0.611779,0.641707,0.579025
0.521255,0.158740,0.307931,0.302457,0.474854,0.608504,0.635586,0.574006
0.529252,0.176253,0.313786,0.307115,0.473861,0.595607,0.629879,0.563016
0.528207,0.181919,0.316648,0.303857,0.473084,0.591299,0.628023,0.559043
0.520764,0.200316,0.327400,0.290675,0.460787,0.576026,0.614803,0.546290
0.515641,0.207643,0.331343,0.286039,0.455925,0.569376,0.608471,0.539081
0.511503,0.214997,0.336254,0.281450,0.452018,0.562209,0.602056,0.531971
0.496616,0.237105,0.344623,0.268932,0.435152,0.546341,0.582464,0.513892
0.490499,0.242146,0.346438,0.266495,0.430050,0.539080,0.576312,0.510057
0.484449,0.247208,0.348421,0.264431,0.425711,0.530003,0.569606,0.506896
0.457853,0.256949,0.353905,0.259005,0.410364,0.506176,0.543305,0.485321
0.447702,0.262267,0.354887,0.255089,0.404744,0.500863,0.533597,0.478651
0.439570,0.269198,0.358205,0.252088,0.399962,0.497056,0.523696,0.472355
0.419772,0.286165,0.355581,0.233416,0.381794,0.476728,0.500383,0.463767
0.414822,0.290580,0.354143,0.227713,0.375734,0.470394,0.493916,0.462697
0.408467,0.294204,0.352085,0.221179,0.369752,0.465987,0.485224,0.459472
0.391451,0.309582,0.351319,0.206505,0.354945,0.456592,0.455238,0.443221
0.382189,0.313375,0.350144,0.201568,0.348600,0.457263,0.444687,0.437248
0.372089,0.316586,0.348355,0.197271,0.341295,0.458823,0.433726,0.429699
0.351251,0.321274,0.345743,0.191192,0.325518,0.457600,0.414070,0.415644
0.331969,0.323668,0.349142,0.184390,0.312420,0.458884,0.393453,0.402355
0.303787,0.325148,0.350956,0.168893,0.291238,0.454460,0.370802,0.386110
0.293077,0.326297,0.352098,0.162468,0.283823,0.455892,0.362896,0.379276
0.281991,0.327269,0.353406,0.157026,0.276988,0.453955,0.355667,0.372581
0.262049,0.328652,0.353246,0.148340,0.267480,0.443999,0.338405,0.359633
0.252395,0.328756,0.353560,0.145369,0.261009,0.437089,0.327865,0.352054
0.243013,0.328843,0.353806,0.142997,0.252387,0.430177,0.318600,0.342936
0.218067,0.329296,0.353585,0.134686,0.227255,0.408743,0.295965,0.316105
0.209604,0.328844,0.352205,0.130861,0.218671,0.400338,0.289347,0.307568
0.201442,0.329077,0.349887,0.126302,0.211464,0.390814,0.282652,0.300241
0.186926,0.331104,0.347163,0.116814,0.198126,0.374657,0.265724,0.285206
0.180165,0.331240,0.346167,0.112134,0.190955,0.370181,0.254756,0.278689
0.174195,0.330938,0.342904,0.107617,0.184898,0.365182,0.243328,0.272812
0.161243,0.331597,0.335867,0.099040,0.178133,0.366304,0.222187,0.262337
0.142570,0.332426,0.337602,0.090558,0.168619,0.364321,0.198757,0.248045
0.136417,0.331852,0.338581,0.087930,0.163888,0.366468,0.190228,0.242962
0.125897,0.329285,0.338731,0.084012,0.155455,0.367705,0.176371,0.226704
0.121427,0.326400,0.337645,0.081903,0.151798,0.366515,0.169528,0.219343
0.112934,0.318344,0.335498,0.079155,0.147129,0.368187,0.158472,0.206726
0.100339,0.310285,0.330802,0.074962,0.144836,0.371346,0.152059,0.195539
0.085825,0.307973,0.327178,0.069165,0.145373,0.378569,0.141411,0.184081
0.080102,0.305676,0.326146,0.066301,0.145815,0.380835,0.136396,0.179590
0.071142,0.297799,0.319979,0.061618,0.147384,0.387967,0.127902,0.174717
0.067536,0.294045,0.314143,0.060047,0.147829,0.391824,0.124304,0.174010
0.062446,0.289304,0.300617,0.056884,0.149361,0.399484,0.118865,0.177016
0.059966,0.285385,0.292830,0.055358,0.150583,0.405296,0.117413,0.181370
0.057531,0.279093,0.286273,0.054184,0.150153,0.411683,0.115946,0.185662
0.054508,0.268367,0.276378,0.051306,0.147815,0.425101,0.115533,0.191494
0.057159,0.238547,0.259342,0.046506,0.149783,0.471342,0.110661,0.215873
0.057124,0.232164,0.256333,0.046266,0.152729,0.477700,0.111196,0.218848
0.055249,0.220794,0.253726,0.044913,0.162406,0.495745,0.111288,0.226729
0.056161,0.210789,0.250229,0.044294,0.172355,0.504740,0.112588,0.230111
0.058763,0.207515,0.248254,0.044106,0.177152,0.509231,0.113285,0.232696
0.068308,0.200163,0.244245,0.043837,0.185102,0.517565,0.115341,0.248033
0.073166,0.194866,0.238445,0.043595,0.189436,0.518477,0.116166,0.261848
0.085361,0.195114,0.233257,0.045227,0.195717,0.519203,0.124325,0.286105
0.090121,0.194185,0.231191,0.045745,0.195880,0.514834,0.129814,0.298153
0.091974,0.193821,0.229859,0.046125,0.195605,0.514292,0.132509,0.301911
0.097272,0.192187,0.226204,0.046451,0.195881,0.519561,0.138256,0.312470
0.098555,0.191035,0.223933,0.046449,0.196023,0.520187,0.139578,0.315236
0.099689,0.189906,0.222011,0.046564,0.196307,0.520505,0.139977,0.317461
0.102076,0.187787,0.222049,0.046652,0.198321,0.523693,0.138805,0.322326
0.102522,0.187561,0.222725,0.046671,0.198791,0.529801,0.138510,0.323483
0.103197,0.187026,0.222374,0.046939,0.197660,0.538448,0.140704,0.324606
0.103488,0.187661,0.221757,0.047158,0.190813,0.537361,0.143578,0.323116
0.103845,0.187823,0.218824,0.047397,0.188253,0.535759,0.144237,0.322947
0.103828,0.187496,0.215975,0.047231,0.186087,0.532736,0.145691,0.322843
0.103616,0.186911,0.213803,0.047571,0.182700,0.527283,0.149917,0.322572
0.104052,0.187013,0.215290,0.048482,0.180895,0.523003,0.153044,0.323351
0.103913,0.188181,0.216851,0.049097,0.180419,0.521798,0.154703,0.324015
0.104032,0.190286,0.220387,0.049510,0.179751,0.516108,0.157557,0.324704
0.104561,0.191942,0.222552,0.049191,0.176601,0.510810,0.159500,0.322978
0.105073,0.190328,0.222823,0.048864,0.173591,0.509722,0.161275,0.321962
0.105482,0.180681,0.213490,0.048155,0.166932,0.518573,0.164495,0.312054
0.104529,0.175218,0.208953,0.047442,0.161533,0.518461,0.166431,0.304745
0.102400,0.160400,0.214595,0.046474,0.152651,0.510069,0.169687,0.285286
0.103484,0.160141,0.219249,0.046299,0.151037,0.509313,0.169246,0.280877
0.105256,0.159500,0.223729,0.046353,0.149341,0.505239,0.168644,0.277687
0.106093,0.159293,0.227521,0.046248,0.148046,0.500498,0.168269,0.275029
0.105699,0.155308,0.232891,0.045804,0.144911,0.491806,0.166124,0.269164
0.105833,0.154126,0.236266,0.045653,0.143138,0.489031,0.164862,0.265618
0.105426,0.151313,0.242487,0.045501,0.139597,0.475925,0.162622,0.257335
0.105017,0.150269,0.243144,0.044579,0.137434,0.466844,0.161497,0.251360
0.104076,0.149173,0.243701,0.043521,0.134777,0.458523,0.160316,0.246354
0.102616,0.146197,0.247986,0.041712,0.126842,0.440467,0.155325,0.230346
0.101557,0.141689,0.250428,0.040445,0.119661,0.423646,0.150828,0.216580
0.094878,0.133305,0.252786,0.038954,0.102101,0.400237,0.145150,0.199861
0.091364,0.130651,0.253074,0.038667,0.096375,0.390725,0.143856,0.195478
0.083261,0.126503,0.253318,0.037983,0.085902,0.372709,0.141312,0.179686
0.073510,0.121330,0.256861,0.037432,0.074377,0.353919,0.139325,0.158448
0.070177,0.119983,0.257628,0.036834,0.071986,0.347300,0.137482,0.152595
0.064513,0.117579,0.264230,0.035340,0.067122,0.337552,0.129473,0.142033
0.055991,0.117993,0.273707,0.033401,0.062411,0.329977,0.123324,0.134230
0.054239,0.118642,0.275192,0.033110,0.060376,0.325526,0.123296,0.135173
0.051765,0.120050,0.279668,0.032273,0.059217,0.315869,0.122825,0.138666
0.051418,0.120383,0.280742,0.031796,0.058843,0.314065,0.124723,0.140980
0.051404,0.120665,0.280414,0.031984,0.058015,0.311260,0.126329,0.143309
0.051438,0.118436,0.280434,0.032415,0.055824,0.301211,0.128916,0.147054
0.051476,0.116089,0.280450,0.032374,0.055172,0.296053,0.130373,0.148555
0.051602,0.113713,0.280464,0.032697,0.054621,0.291687,0.131125,0.150543
0.051895,0.108642,0.285226,0.033672,0.053759,0.284967,0.132292,0.155528
0.052009,0.108243,0.287691,0.034162,0.053424,0.282527,0.133760,0.158919
0.051859,0.107620,0.291507,0.034530,0.053310,0.275624,0.136239,0.163618
0.052067,0.107290,0.294490,0.034194,0.053574,0.270457,0.137519,0.168871
0.051976,0.108209,0.294963,0.033952,0.053521,0.267940,0.138251,0.170963
0.051809,0.108488,0.297312,0.033116,0.053141,0.263549,0.139875,0.174268
0.051643,0.109598,0.297694,0.032811,0.052248,0.262550,0.142273,0.175409
0.050608,0.112157,0.298362,0.032402,0.052067,0.263411,0.148200,0.177979
0.050311,0.113135,0.298654,0.032235,0.052541,0.263417,0.148839,0.180219
0.049416,0.114753,0.300668,0.032069,0.052430,0.254385,0.149984,0.191199
0.049674,0.116220,0.303720,0.032438,0.052161,0.251850,0.150645,0.196646
0.049996,0.115978,0.304939,0.032750,0.053426,0.249637,0.152059,0.201414
0.051081,0.114016,0.308697,0.034693,0.057746,0.242643,0.163079,0.221590
0.050427,0.115574,0.305048,0.035064,0.060454,0.237210,0.175037,0.230765
0.047258,0.113899,0.298690,0.035040,0.062684,0.233279,0.187067,0.242803
0.046207,0.112215,0.292416,0.035493,0.064163,0.231699,0.197995,0.253045
0.045494,0.111081,0.286848,0.035873,0.065396,0.232037,0.205767,0.261933
0.045763,0.109903,0.278646,0.036886,0.069001,0.236662,0.217757,0.281521
0.046309,0.109624,0.277539,0.037273,0.070976,0.239239,0.221461,0.287694
0.046599,0.110911,0.275137,0.037600,0.074655,0.244734,0.224595,0.293536
0.050177,0.114222,0.269969,0.037958,0.083335,0.263271,0.236575,0.312589
0.056542,0.116098,0.269135,0.038374,0.091104,0.281814,0.243404,0.328494
0.069720,0.120794,0.271644,0.039670,0.110133,0.319124,0.255891,0.361889
0.076952,0.122485,0.267917,0.040263,0.116394,0.336066,0.260103,0.378576
0.080154,0.120779,0.265603,0.040494,0.118238,0.343188,0.262960,0.386795
0.092887,0.116825,0.249877,0.040667,0.122608,0.361169,0.277008,0.413904
0.098211,0.115612,0.245500,0.040496,0.124352,0.366447,0.281659,0.420227
0.104303,0.113745,0.242532,0.040546,0.125897,0.373226,0.285683,0.426126
0.123241,0.111326,0.237568,0.041865,0.129157,0.393027,0.298213,0.441682
0.140706,0.112224,0.233217,0.042403,0.132260,0.417044,0.314546,0.452176
0.156391,0.114054,0.234541,0.041834,0.140230,0.440605,0.325691,0.462065
0.161907,0.114622,0.236122,0.041930,0.147345,0.447475,0.327849,0.466813
0.174387,0.115678,0.238964,0.043188,0.161437,0.461795,0.339605,0.478311
0.203978,0.114457,0.237375,0.044314,0.179860,0.479802,0.351742,0.491957
0.212417,0.113923,0.236999,0.044719,0.183981,0.486981,0.354577,0.496128
0.228583,0.112582,0.234475,0.045719,0.193418,0.502791,0.359147,0.502693
0.252632,0.108692,0.228523,0.047333,0.212739,0.517960,0.367821,0.520674
0.261669,0.106359,0.226218,0.047703,0.218775,0.524218,0.368738,0.528256
0.282328,0.105653,0.222917,0.048429,0.233648,0.528615,0.369151,0.545196
0.314629,0.108865,0.220891,0.051381,0.257582,0.537258,0.367524,0.556640
0.323741,0.109019,0.220527,0.052649,0.264184,0.536217,0.367750,0.559603
0.362392,0.119167,0.228851,0.057369,0.294357,0.558724,0.376385,0.580696
0.371306,0.122629,0.229744,0.059226,0.300831,0.566423,0.375872,0.584824
0.379063,0.123660,0.230501,0.060798,0.307134,0.571792,0.377585,0.587696
0.393899,0.122424,0.232276,0.066963,0.318280,0.588558,0.378322,0.585803
0.400137,0.121772,0.232470,0.070195,0.326195,0.597110,0.377044,0.586203
0.405824,0.121220,0.232807,0.072707,0.332896,0.604350,0.375510,0.587599
0.415234,0.120776,0.229743,0.078848,0.344008,0.612763,0.378196,0.590341
0.426340,0.121273,0.226817,0.085988,0.359250,0.623258,0.385428,0.594562
0.436626,0.122513,0.224721,0.097926,0.372179,0.632752,0.390284,0.592811
0.442044,0.123322,0.223071,0.103639,0.378142,0.639977,0.393260,0.595288
0.452354,0.121487,0.220502,0.114683,0.384813,0.651048,0.401284,0.604483
0.469704,0.118864,0.221096,0.130631,0.400152,0.658961,0.415798,0.606155
0.475389,0.118085,0.219299,0.135448,0.406909,0.659008,0.422014,0.604902
0.486755,0.117240,0.216813,0.145019,0.421935,0.661773,0.432565,0.600470
0.500408,0.119429,0.227078,0.158763,0.444930,0.663920,0.456060,0.601292
0.503229,0.120634,0.231578,0.163099,0.452298,0.666290,0.464721,0.603613
0.510285,0.128661,0.245542,0.172278,0.466540,0.669390,0.478149,0.609844
0.533234,0.142343,0.270703,0.194478,0.498841,0.663183,0.489429,0.618162
0.545476,0.145772,0.286736,0.212281,0.512523,0.662202,0.491621,0.624450
0.551097,0.146625,0.299979,0.228416,0.529532,0.666590,0.494201,0.631610
0.553595,0.146955,0.306275,0.236133,0.538101,0.667472,0.497912,0.636815
0.558268,0.147175,0.318711,0.255609,0.553465,0.667014,0.510130,0.646980
0.563312,0.147991,0.321473,0.270561,0.567441,0.662929,0.520588,0.653366
0.568199,0.153528,0.319719,0.282225,0.573383,0.657652,0.531201,0.655716
0.569569,0.155825,0.321435,0.288195,0.573035,0.654700,0.534227,0.656519
0.561110,0.163387,0.337266,0.306703,0.583226,0.658437,0.552405,0.662029
0.557735,0.169057,0.347544,0.323403,0.593390,0.658245,0.565698,0.666393
0.555655,0.179121,0.357975,0.343806,0.607888,0.663209,0.577655,0.674980
0.556321,0.182202,0.360350,0.348802,0.612066,0.668102,0.578848,0.673655
0.555662,0.185051,0.362360,0.353031,0.615263,0.670117,0.580775,0.671538
0.555727,0.186326,0.365862,0.360639,0.615944,0.674789,0.583406,0.665444
0.555591,0.186321,0.366805,0.365783,0.614346,0.674268,0.584122,0.663218
0.548574,0.185777,0.368783,0.379204,0.609547,0.672730,0.587820,0.658379
0.547601,0.185899,0.371616,0.394931,0.609340,0.672734,0.593354,0.649494
0.545938,0.180761,0.365723,0.405861,0.604704,0.659620,0.603897,0.638764
0.539555,0.179240,0.365570,0.410029,0.603414,0.649888,0.606407,0.634149
0.534287,0.184340,0.363580,0.410649,0.599506,0.636072,0.605034,0.632526
0.534971,0.192816,0.363783,0.410937,0.590388,0.627752,0.606247,0.624786
0.537111,0.206315,0.371540,0.409165,0.582484,0.625147,0.611053,0.618212
0.535568,0.212679,0.378207,0.403849,0.577773,0.618405,0.613714,0.611960
0.533963,0.215466,0.382168,0.399158,0.574184,0.613173,0.615245,0.608182
0.535118,0.226201,0.388376,0.391559,0.567435,0.596739,0.618526,0.597599
0.535937,0.230367,0.390473,0.389256,0.564722,0.588133,0.617227,0.591552
0.535760,0.235249,0.393058,0.386614,0.562141,0.578290,0.613126,0.586420
0.527207,0.246388,0.397449,0.383301,0.552060,0.562104,0.605358,0.577268
0.522107,0.253320,0.399490,0.381929,0.544820,0.552466,0.598480,0.576310
0.516059,0.262620,0.401218,0.379460,0.535690,0.541484,0.595018,0.574781
0.497713,0.288530,0.402736,0.373324,0.503189,0.511394,0.577161,0.568318
0.492173,0.295255,0.405097,0.369718,0.493019,0.504678,0.568337,0.564355
0.485003,0.309033,0.406181,0.363736,0.473882,0.489986,0.549150,0.551554
0.466091,0.318528,0.402044,0.352235,0.446462,0.468318,0.524987,0.529308
0.446586,0.329784,0.405279,0.341575,0.429724,0.461687,0.512956,0.514176
0.427410,0.343706,0.398703,0.324037,0.418837,0.454450,0.501889,0.501937
0.411326,0.360779,0.394480,0.308311,0.402920,0.446786,0.486615,0.493911
0.401459,0.373531,0.390707,0.291067,0.386238,0.443743,0.470184,0.485014
0.381425,0.383347,0.392930,0.268888,0.365788,0.447145,0.443705,0.476283
0.373894,0.383160,0.394039,0.263742,0.357854,0.445324,0.434501,0.473762
0.367519,0.383671,0.396509,0.257565,0.350996,0.444236,0.423847,0.470800
0.346895,0.387672,0.392227,0.239442,0.328880,0.436351,0.393017,0.456294
0.342270,0.388564,0.388191,0.231420,0.321036,0.430951,0.382076,0.451341
0.330502,0.391560,0.384317,0.214188,0.304493,0.418879,0.362525,0.447654
0.303513,0.400700,0.388797,0.186308,0.266180,0.396542,0.334414,0.432700
0.296335,0.402608,0.391349,0.181876,0.258595,0.389847,0.329718,0.429007
0.268550,0.414587,0.401290,0.169091,0.240271,0.382520,0.319557,0.418997
0.260790,0.418753,0.405611,0.162439,0.236155,0.382121,0.317480,0.414720
0.245880,0.423962,0.405799,0.149604,0.228261,0.381601,0.308845,0.406428
0.222037,0.430301,0.402736,0.134481,0.222539,0.383757,0.291758,0.394158
0.215218,0.431830,0.401329,0.130769,0.221346,0.384663,0.284177,0.387926
0.202589,0.432015,0.396102,0.122741,0.216351,0.385878,0.267087,0.379435
0.186602,0.426888,0.394725,0.113756,0.207649,0.388690,0.249368,0.364194
0.179228,0.424366,0.394498,0.112061,0.206307,0.389307,0.244435,0.360656
0.158715,0.421668,0.388394,0.110187,0.201652,0.384081,0.228515,0.347042
0.153143,0.420095,0.386676,0.108757,0.198578,0.382311,0.219560,0.342775
0.143843,0.418978,0.383755,0.105842,0.188767,0.382457,0.203730,0.335590
0.127349,0.409403,0.374513,0.101476,0.180748,0.393454,0.181780,0.326569
0.120926,0.407249,0.372287,0.099471,0.178368,0.394919,0.175267,0.323539
0.115013,0.404069,0.369806,0.098146,0.175691,0.396083,0.169859,0.320838
0.106047,0.395763,0.362375,0.093216,0.169829,0.404633,0.161128,0.315991
0.102371,0.389963,0.360306,0.090341,0.167100,0.409739,0.158313,0.310139
0.096531,0.373945,0.357722,0.085445,0.164162,0.426896,0.148278,0.299884
0.090176,0.348859,0.342937,0.080279,0.164172,0.451589,0.139534,0.286413
0.088337,0.339879,0.338345,0.078912,0.165815,0.457537,0.137739,0.282317
0.087449,0.333396,0.336107,0.077756,0.168056,0.462865,0.136219,0.279794
0.085765,0.322908,0.335609,0.076302,0.171513,0.477405,0.133694,0.277421
0.083608,0.310564,0.330819,0.075343,0.173502,0.484186,0.131870,0.275059
0.081179,0.302263,0.326038,0.074449,0.169687,0.483414,0.130746,0.268478
0.080422,0.279994,0.318321,0.073384,0.164912,0.473092,0.131215,0.256857
0.080500,0.274404,0.314403,0.073028,0.163914,0.472219,0.130451,0.252935
0.080883,0.269931,0.312683,0.072898,0.162226,0.471593,0.128492,0.249500
0.081959,0.269591,0.308594,0.071193,0.160382,0.473716,0.125723,0.242667
0.082422,0.270109,0.308029,0.069964,0.159926,0.476284,0.124424,0.239990
0.086225,0.264746,0.303761,0.067165,0.165673,0.501760,0.122854,0.231776
0.088220,0.261104,0.298337,0.066540,0.169921,0.514366,0.122467,0.228592
0.089919,0.257352,0.294757,0.066407,0.171473,0.519731,0.122231,0.228541
0.092632,0.249973,0.287993,0.066476,0.174502,0.527904,0.121173,0.230827
0.093515,0.247430,0.283949,0.066525,0.174388,0.533117,0.121043,0.235532
0.094668,0.244895,0.278678,0.066769,0.174292,0.538798,0.120212,0.240990
0.098576,0.235953,0.266397,0.065957,0.174449,0.555756,0.117247,0.253980
0.102443,0.235508,0.253067,0.063767,0.184138,0.572248,0.119694,0.262258
0.106325,0.239458,0.247356,0.062036,0.195809,0.585437,0.120396,0.267138
0.107744,0.240907,0.247590,0.061444,0.198287,0.588483,0.120820,0.269872
0.109242,0.250189,0.250529,0.061250,0.200671,0.591539,0.121742,0.276505
0.111670,0.269224,0.258531,0.060519,0.204742,0.599005,0.122881,0.281906
0.114916,0.278702,0.262873,0.060530,0.206454,0.597745,0.120324,0.287552
0.120040,0.282264,0.271478,0.057619,0.206970,0.598849,0.118427,0.293305
0.122418,0.279095,0.279095,0.054566,0.206806,0.601801,0.117612,0.297522
0.122827,0.278461,0.282252,0.053569,0.207165,0.603194,0.117599,0.298519
0.123156,0.277010,0.283771,0.052901,0.208747,0.602797,0.117910,0.299363
0.123837,0.280516,0.288478,0.051053,0.218739,0.590482,0.121747,0.298696
0.123864,0.283308,0.287595,0.049234,0.221500,0.591658,0.123224,0.298534
0.123653,0.284293,0.288278,0.048560,0.222556,0.590909,0.123792,0.298600
0.123386,0.286747,0.288219,0.048034,0.226072,0.593511,0.124105,0.298884
0.123248,0.292340,0.291407,0.047953,0.225913,0.589406,0.123667,0.301273
0.123199,0.293954,0.293754,0.047868,0.225640,0.585041,0.122391,0.301537
0.122427,0.298233,0.294546,0.047238,0.223328,0.580292,0.120457,0.298853
0.118823,0.299352,0.291025,0.046214,0.221702,0.570231,0.121243,0.294707
0.117542,0.298205,0.289465,0.044891,0.223531,0.567371,0.120909,0.290122
0.117045,0.294854,0.288387,0.044241,0.224156,0.566618,0.120430,0.287241
0.115696,0.292021,0.289177,0.043262,0.225446,0.567180,0.120346,0.284547
0.110140,0.290034,0.288738,0.043444,0.228502,0.568154,0.118097,0.273580
0.105492,0.286553,0.285134,0.044934,0.229420,0.563799,0.116051,0.266728
0.101547,0.279358,0.281520,0.045916,0.226424,0.553068,0.116638,0.263528
0.096714,0.272014,0.277436,0.046806,0.219149,0.529603,0.117852,0.259206
0.095045,0.270122,0.274971,0.046765,0.215950,0.520573,0.117572,0.257584
0.093283,0.269025,0.273946,0.046716,0.212840,0.510320,0.118043,0.255540
0.091309,0.268078,0.273486,0.047045,0.209521,0.501014,0.118173,0.253127
0.086549,0.266779,0.272726,0.047366,0.204335,0.484564,0.118066,0.241395
0.084229,0.266357,0.271984,0.047445,0.202322,0.476753,0.119004,0.233958
0.077587,0.257961,0.273357,0.046847,0.194858,0.457367,0.121876,0.207040
0.072328,0.252108,0.276987,0.047488,0.191181,0.455243,0.122823,0.192630
0.067333,0.239871,0.283570,0.048010,0.180352,0.453798,0.119284,0.177452
0.064761,0.234426,0.286349,0.048833,0.173533,0.449333,0.118557,0.173348
0.062309,0.228568,0.291001,0.049417,0.164844,0.443019,0.118398,0.169542
0.057753,0.211738,0.299890,0.050604,0.141439,0.421855,0.121023,0.159519
0.056629,0.205563,0.301512,0.051528,0.135160,0.415747,0.121671,0.156061
0.054402,0.196113,0.300490,0.053553,0.124107,0.402144,0.122538,0.150865
0.049410,0.179667,0.291909,0.055737,0.111154,0.388942,0.124616,0.139216
0.046730,0.175099,0.286825,0.056362,0.108304,0.386064,0.126184,0.136061
0.040321,0.165250,0.273262,0.056604,0.102122,0.371191,0.126257,0.129969
0.038830,0.162896,0.271114,0.056375,0.099996,0.366623,0.126310,0.128812
0.037540,0.161264,0.269336,0.056006,0.096712,0.362756,0.126689,0.128718
0.035524,0.158581,0.265766,0.055497,0.089078,0.356566,0.127287,0.128759
0.034742,0.157581,0.264282,0.055187,0.084837,0.353135,0.127988,0.128776
0.033547,0.151511,0.262071,0.053759,0.078717,0.344692,0.129817,0.127983
0.032344,0.146674,0.259008,0.052741,0.072053,0.325783,0.130407,0.128325
0.031901,0.143521,0.257204,0.052132,0.067867,0.309770,0.132558,0.128059
0.031606,0.133202,0.264587,0.051773,0.067093,0.294603,0.137448,0.129522
0.031092,0.127714,0.267149,0.053411,0.067856,0.288566,0.139284,0.129758
0.032081,0.125898,0.267825,0.054284,0.069471,0.286607,0.140441,0.129212
0.032476,0.125445,0.268700,0.055080,0.068984,0.284948,0.141464,0.129426
0.033199,0.124245,0.266294,0.056107,0.066783,0.280910,0.142864,0.131100
0.034289,0.124345,0.263988,0.057066,0.065744,0.280053,0.147032,0.134770
0.039233,0.121031,0.258542,0.058308,0.072197,0.292333,0.150279,0.137829
0.040330,0.120432,0.257319,0.058521,0.073675,0.295709,0.151425,0.138802
0.043122,0.118902,0.257019,0.057799,0.074786,0.295090,0.152509,0.139541
0.048466,0.116338,0.257321,0.055984,0.076539,0.293549,0.156109,0.143268
0.054840,0.115986,0.254460,0.055088,0.079575,0.298975,0.160311,0.145353
0.059703,0.115484,0.251110,0.055491,0.086121,0.307287,0.163878,0.146516
0.066140,0.116174,0.247279,0.055718,0.092180,0.315619,0.167206,0.150152
0.070490,0.115965,0.244159,0.055835,0.094812,0.318708,0.168814,0.153579
0.077940,0.118277,0.239890,0.055333,0.101255,0.327072,0.173464,0.163999
0.089354,0.127486,0.238535,0.055575,0.110258,0.338974,0.178247,0.178009
0.097407,0.133657,0.234478,0.056555,0.118815,0.346261,0.181029,0.191086
0.103693,0.141014,0.229579,0.056548,0.128586,0.341815,0.184092,0.201830
0.109987,0.146644,0.223177,0.057126,0.141739,0.323109,0.189293,0.220055
0.114905,0.146761,0.211618,0.056630,0.151818,0.313558,0.203893,0.239531
0.123062,0.146927,0.196269,0.055301,0.161430,0.316006,0.219848,0.256302
0.127320,0.145500,0.192252,0.054109,0.165004,0.316445,0.226832,0.262639
0.137222,0.146757,0.190496,0.052824,0.172811,0.323536,0.243422,0.273111
0.147994,0.147828,0.189856,0.052566,0.179492,0.340904,0.259200,0.282586
0.153541,0.150501,0.190934,0.052521,0.183816,0.347786,0.266669,0.287757
0.165281,0.154679,0.192805,0.052858,0.190753,0.359125,0.285602,0.297808
0.182454,0.157006,0.194779,0.053827,0.200387,0.374045,0.313347,0.318152
0.192155,0.158811,0.196267,0.055935,0.209666,0.391319,0.333387,0.338043
0.201860,0.160206,0.197334,0.057687,0.218251,0.406866,0.349128,0.356191
0.222351,0.169240,0.204873,0.059405,0.242320,0.440216,0.371798,0.378080
0.226971,0.172974,0.207160,0.059408,0.248050,0.445050,0.377356,0.384866
0.238301,0.181825,0.207154,0.059996,0.261210,0.457149,0.385876,0.397954
0.245778,0.185516,0.203885,0.059976,0.265031,0.461336,0.390029,0.405288
0.254027,0.188641,0.201118,0.059959,0.269156,0.464237,0.394583,0.412015
0.282310,0.197898,0.193821,0.057519,0.283830,0.471263,0.414204,0.433764
0.292440,0.200721,0.191486,0.056976,0.290630,0.475411,0.418935,0.441408
0.326255,0.216762,0.186162,0.059164,0.318026,0.494784,0.431560,0.468212
0.331028,0.222521,0.185446,0.060485,0.323297,0.495328,0.435545,0.474337
0.336669,0.227237,0.185093,0.062154,0.327593,0.495901,0.440366,0.481004
0.348636,0.233570,0.184721,0.065331,0.333537,0.500132,0.447912,0.490904
0.351214,0.236045,0.184559,0.066825,0.337530,0.501417,0.453405,0.496542
0.354542,0.238467,0.184422,0.068286,0.341474,0.502857,0.457038,0.500025
0.366567,0.245578,0.180523,0.071558,0.354584,0.500090,0.468098,0.515454
0.370653,0.249995,0.179600,0.071961,0.356662,0.497102,0.472203,0.520018
0.382120,0.265017,0.178940,0.073086,0.370000,0.500209,0.484374,0.528849
0.385561,0.272216,0.182215,0.074514,0.382141,0.508444,0.494758,0.533379
0.391761,0.278937,0.186626,0.075966,0.394849,0.514944,0.504267,0.540970
0.404369,0.279318,0.186913,0.078387,0.406474,0.524340,0.514070,0.547047
0.418599,0.281109,0.192950,0.084030,0.415843,0.526527,0.521509,0.549098
0.426762,0.280556,0.197107,0.087258,0.419001,0.527095,0.524145,0.551281
0.449536,0.284232,0.204115,0.098128,0.434294,0.535229,0.534880,0.553282
0.459589,0.286824,0.205566,0.101718,0.440307,0.540497,0.538219,0.553029
0.482275,0.291208,0.209379,0.108442,0.453570,0.550745,0.539963,0.551801
0.522042,0.300203,0.218006,0.125924,0.478745,0.564357,0.536286,0.557488
0.526719,0.300693,0.222078,0.133943,0.487107,0.569118,0.532904,0.558708
0.533712,0.298800,0.229461,0.155015,0.505692,0.576636,0.520086,0.566440
0.536607,0.300957,0.232756,0.162040,0.512042,0.573879,0.519576,0.569389
0.538894,0.303094,0.234903,0.168446,0.516004,0.572834,0.520274,0.571970
0.547198,0.307229,0.238346,0.178927,0.526963,0.574075,0.522368,0.575220
0.551099,0.309199,0.239289,0.183235,0.531491,0.579298,0.524572,0.575935
0.555759,0.311906,0.240827,0.189144,0.535458,0.585080,0.525951,0.574291
0.564605,0.318808,0.248818,0.200556,0.543555,0.588836,0.527281,0.564439
0.570754,0.323189,0.253065,0.207160,0.546400,0.591490,0.527712,0.557074
0.582130,0.330966,0.263329,0.220592,0.555695,0.600848,0.531223,0.547076
0.603101,0.337389,0.278974,0.249373,0.559671,0.602130,0.541757,0.552573
0.611254,0.341244,0.281553,0.257817,0.562860,0.602985,0.542946,0.554835
0.626266,0.343134,0.287997,0.272789,0.568905,0.604237,0.548051,0.552012
0.636284,0.344244,0.299567,0.295471,0.579180,0.609628,0.550582,0.545771
0.637150,0.344823,0.302962,0.303037,0.583353,0.612716,0.550980,0.543754
0.639532,0.345221,0.305835,0.310892,0.586544,0.615029,0.550612,0.538982
0.641577,0.341103,0.310095,0.327813,0.591377,0.616624,0.553949,0.532468
0.645224,0.336199,0.313702,0.340754,0.599958,0.612283,0.555690,0.524604
0.652014,0.328201,0.320215,0.350747,0.601064,0.612060,0.561227,0.519797
0.674580,0.314231,0.338699,0.362979,0.613933,0.603075,0.573191,0.525191
0.681958,0.311841,0.341279,0.366404,0.616864,0.602390,0.576570,0.524833
0.692620,0.308105,0.347111,0.374087,0.623935,0.602136,0.583476,0.521022
0.695206,0.307011,0.349389,0.377625,0.625702,0.601705,0.586362,0.517897
0.696554,0.305140,0.352619,0.382079,0.629693,0.600093,0.589187,0.514848
0.698915,0.296886,0.358715,0.393804,0.640754,0.600956,0.595409,0.510147
0.702221,0.292412,0.363865,0.402161,0.644034,0.598075,0.598087,0.509135
0.709622,0.285145,0.369671,0.416503,0.648627,0.590426,0.603809,0.507566
0.715015,0.274600,0.373194,0.428185,0.647390,0.585777,0.601856,0.501971
0.716603,0.270735,0.373937,0.434067,0.645242,0.583844,0.598581,0.497891
0.704051,0.258611,0.365758,0.447097,0.638936,0.573326,0.590776,0.483635
0.699088,0.254694,0.361197,0.449186,0.630874,0.568281,0.589149,0.477052
0.688576,0.253421,0.358735,0.446935,0.617315,0.560026,0.586979,0.467723
0.668150,0.264272,0.366463,0.440200,0.596969,0.546486,0.583402,0.465292
0.662266,0.267625,0.373311,0.437289,0.590174,0.546551,0.581602,0.466129
0.656786,0.272472,0.378459,0.434817,0.585245,0.544079,0.583661,0.467296
0.646852,0.288125,0.386368,0.419450,0.563915,0.531280,0.599451,0.465445
0.634561,0.313314,0.395106,0.402238,0.546498,0.514154,0.607979,0.459767
0.614019,0.322157,0.406795,0.387942,0.536469,0.506899,0.594464,0.444078
0.606940,0.323870,0.410327,0.384522,0.533632,0.502177,0.586098,0.439276
0.598013,0.324281,0.411907,0.379753,0.531098,0.496020,0.579560,0.434982
0.576992,0.327849,0.406765,0.364154,0.519310,0.481165,0.556326,0.427974
0.568697,0.332579,0.409527,0.359512,0.512207,0.474427,0.549288,0.426246
0.551718,0.338425,0.410347,0.343212,0.501313,0.459819,0.534023,0.417324
0.531292,0.341671,0.417447,0.324991,0.490618,0.456378,0.519283,0.402385
0.520011,0.340844,0.420283,0.317628,0.482643,0.458240,0.514731,0.400624
0.498409,0.344275,0.422868,0.305274,0.468185,0.462102,0.502969,0.404391
0.472182,0.351227,0.426021,0.286258,0.452955,0.459167,0.487720,0.408210
0.463889,0.355910,0.426704,0.280263,0.448488,0.459263,0.481290,0.409270
0.453873,0.360451,0.427282,0.273738,0.442758,0.458395,0.475488,0.410010
0.443138,0.364295,0.428082,0.266931,0.435987,0.458561,0.468223,0.409287
0.432324,0.367549,0.427344,0.258697,0.428379,0.458881,0.462303,0.407478
0.410399,0.376943,0.430109,0.246641,0.411380,0.459039,0.451085,0.405574
0.398576,0.381657,0.432432,0.240505,0.404019,0.456137,0.443016,0.401443
0.374265,0.390036,0.435134,0.231320,0.392082,0.450713,0.426802,0.390683
0.335424,0.408214,0.438494,0.219956,0.368866,0.450264,0.399789,0.368348
0.322163,0.412696,0.439009,0.215916,0.362160,0.451600,0.389459,0.362304
0.288133,0.420834,0.442199,0.202925,0.340794,0.450988,0.360861,0.350319
0.269727,0.426265,0.445364,0.193723,0.321317,0.448250,0.342341,0.344611
0.252447,0.432206,0.446410,0.178934,0.299701,0.446709,0.322643,0.338534
0.242525,0.434224,0.445892,0.171419,0.290393,0.447850,0.312574,0.334259
0.214560,0.438267,0.449662,0.156008,0.268570,0.444171,0.286099,0.321266
0.205681,0.437901,0.450248,0.152144,0.262058,0.443303,0.279760,0.317030
0.197521,0.439009,0.450753,0.148500,0.254362,0.444208,0.273628,0.312247
0.172981,0.443159,0.455332,0.139919,0.236958,0.442148,0.257620,0.299215
0.164600,0.444481,0.458159,0.135781,0.232449,0.439700,0.252059,0.294969
0.156592,0.445245,0.460552,0.132405,0.228617,0.439649,0.246954,0.291375
0.132261,0.437736,0.462820,0.122347,0.223224,0.437566,0.228032,0.277494
0.119309,0.432697,0.453780,0.119786,0.220606,0.439597,0.220843,0.266759
0.099287,0.419013,0.442055,0.116046,0.212226,0.446515,0.200408,0.248867
0.094194,0.414287,0.441620,0.114717,0.208685,0.449668,0.192822,0.242962
0.089882,0.408429,0.441083,0.112444,0.205688,0.453944,0.184824,0.237480
0.086232,0.401228,0.440127,0.109745,0.203914,0.457848,0.177683,0.234809
0.083450,0.393186,0.436404,0.107761,0.202225,0.462974,0.169893,0.232671
0.078611,0.373333,0.427406,0.103750,0.199301,0.483026,0.149728,0.231063
0.077402,0.371473,0.424586,0.102528,0.197942,0.487754,0.146875,0.232155
0.075744,0.368983,0.422962,0.099838,0.198171,0.499498,0.141287,0.240048
0.069747,0.356017,0.421768,0.094467,0.207224,0.511604,0.132637,0.246175
0.066638,0.344163,0.415776,0.091076,0.214436,0.519707,0.125483,0.252247
0.065690,0.334527,0.406623,0.088241,0.218860,0.527412,0.119439,0.259082
0.063877,0.320127,0.391279,0.084552,0.225605,0.525209,0.111171,0.255455
0.063089,0.314146,0.387008,0.082976,0.227573,0.522507,0.109922,0.249667
0.063968,0.304498,0.377207,0.079910,0.228757,0.519382,0.109563,0.241694
0.066284,0.287259,0.366318,0.075563,0.225410,0.518424,0.111254,0.238680
0.068283,0.282142,0.364641,0.074745,0.224789,0.519065,0.113111,0.240697
0.076135,0.271982,0.361021,0.074390,0.224377,0.525637,0.115902,0.245910
0.086034,0.257438,0.351071,0.073955,0.217857,0.528559,0.120582,0.259241
0.088435,0.253443,0.347844,0.074226,0.216192,0.529278,0.122718,0.265045
0.093383,0.242016,0.339484,0.073643,0.213814,0.526676,0.125553,0.275118
0.097535,0.233893,0.334606,0.072818,0.209344,0.518177,0.131184,0.284766
0.101273,0.229396,0.329099,0.071941,0.205448,0.512984,0.138794,0.295616
0.103395,0.227279,0.326085,0.071475,0.203836,0.511911,0.142392,0.298905
0.111320,0.221732,0.317643,0.070104,0.201893,0.513353,0.147956,0.304233
0.114323,0.217951,0.314686,0.069418,0.201404,0.513913,0.150438,0.306342
0.129694,0.218229,0.299016,0.065456,0.200011,0.499770,0.166129,0.320393
0.134949,0.223308,0.300110,0.061830,0.199413,0.491321,0.173170,0.332120
0.138761,0.222543,0.303271,0.058681,0.199411,0.487299,0.177548,0.342146
0.142700,0.221390,0.301493,0.054932,0.198086,0.481888,0.182268,0.352579
0.143811,0.223322,0.301516,0.053931,0.198076,0.481628,0.183831,0.355516
0.144649,0.224958,0.300820,0.053084,0.197543,0.484427,0.184883,0.358002
0.146048,0.221833,0.300178,0.050856,0.200357,0.489296,0.186418,0.363726
0.148074,0.220670,0.299299,0.049859,0.204548,0.491857,0.186886,0.366027
0.151149,0.218017,0.295277,0.048820,0.211876,0.495682,0.188540,0.369468
0.152772,0.216448,0.286649,0.048186,0.218747,0.495779,0.194453,0.371895
0.153132,0.214384,0.276137,0.047082,0.216178,0.485042,0.200608,0.372195
0.151356,0.207927,0.265232,0.045008,0.208961,0.473593,0.209379,0.376001
0.150034,0.204869,0.258301,0.044811,0.200831,0.461609,0.213390,0.373442
0.148961,0.202608,0.252315,0.045403,0.190927,0.449510,0.216501,0.372863
0.147306,0.195837,0.239723,0.048024,0.176743,0.426975,0.222404,0.364769
0.145727,0.192777,0.234434,0.048657,0.174116,0.420324,0.224628,0.361426
0.143465,0.191146,0.229206,0.049599,0.171387,0.409927,0.229236,0.356561
0.138476,0.190269,0.220251,0.050281,0.168020,0.413844,0.236230,0.346264
0.134110,0.195450,0.218940,0.050602,0.165880,0.409917,0.237017,0.342928
0.128975,0.202196,0.221593,0.049931,0.163450,0.405904,0.234884,0.335895
0.125452,0.204656,0.222046,0.049698,0.162194,0.401088,0.233524,0.331545
0.114895,0.208643,0.221248,0.048431,0.160959,0.389312,0.234562,0.322874
0.109912,0.210051,0.220342,0.047921,0.161008,0.385297,0.234829,0.317375
0.101992,0.212767,0.220477,0.047054,0.159922,0.380040,0.234129,0.304208
0.095862,0.213465,0.219049,0.046121,0.158072,0.377635,0.232026,0.290170
0.090358,0.216457,0.224628,0.046859,0.157502,0.374743,0.231025,0.278825
0.088476,0.218068,0.230291,0.047313,0.157751,0.378049,0.228265,0.274397
0.085073,0.218739,0.239321,0.047985,0.159010,0.380440,0.221937,0.263426
0.076163,0.221262,0.251243,0.048233,0.160685,0.376619,0.214852,0.249883
0.073329,0.221776,0.253074,0.047740,0.160421,0.374725,0.212433,0.247028
0.068021,0.218751,0.254265,0.046438,0.159267,0.371619,0.209269,0.241001
0.061279,0.213592,0.252928,0.044669,0.157472,0.370029,0.207262,0.233702
0.058064,0.210789,0.252629,0.043831,0.156829,0.369760,0.206587,0.229596
0.055130,0.206144,0.249510,0.042925,0.157420,0.369532,0.204807,0.222612
0.049422,0.198288,0.240865,0.042180,0.159307,0.359308,0.201125,0.205338
0.048263,0.197555,0.238033,0.042115,0.159823,0.356732,0.200093,0.202178
0.047493,0.197070,0.236494,0.042107,0.160722,0.355103,0.199219,0.199503
0.045885,0.193467,0.231225,0.042317,0.160645,0.351408,0.199880,0.194440
0.045622,0.192873,0.229680,0.042369,0.159827,0.350128,0.199654,0.193522
0.045493,0.194342,0.227613,0.042714,0.159517,0.347872,0.199382,0.193166
0.043876,0.198875,0.227155,0.043469,0.148768,0.331791,0.208712,0.191769
0.043904,0.200625,0.227039,0.044521,0.145658,0.322764,0.212144,0.192907
0.044642,0.200514,0.227313,0.049403,0.140706,0.301787,0.211254,0.196540
0.045568,0.198826,0.227464,0.050694,0.139534,0.296371,0.210471,0.196289
0.046510,0.197691,0.227593,0.052509,0.139905,0.294913,0.213061,0.194764
0.048533,0.196390,0.228484,0.056804,0.142252,0.283406,0.215614,0.191489
0.048745,0.195177,0.228102,0.058119,0.143065,0.277514,0.214783,0.189378
0.051440,0.191448,0.229155,0.060277,0.146027,0.263199,0.219925,0.181089
0.052217,0.191177,0.230392,0.059863,0.146410,0.261131,0.222930,0.183443
0.053458,0.191936,0.231058,0.059239,0.146095,0.259113,0.226129,0.186483
0.055973,0.193159,0.232521,0.060664,0.144411,0.254858,0.231896,0.192184
0.056826,0.192551,0.233282,0.062162,0.142713,0.252701,0.234215,0.194327
0.057626,0.192036,0.233950,0.063573,0.142817,0.252815,0.235940,0.196106
0.062540,0.189879,0.234569,0.067961,0.138654,0.240808,0.244428,0.203321
0.065934,0.186886,0.240859,0.071344,0.132046,0.228444,0.252779,0.208076
0.069005,0.182055,0.237685,0.075137,0.129089,0.225308,0.258845,0.211258
0.069918,0.180993,0.237227,0.076281,0.127810,0.224844,0.262104,0.213296
0.073963,0.177725,0.237031,0.077812,0.125293,0.223571,0.268799,0.219244
0.077101,0.176685,0.235932,0.078579,0.124663,0.224604,0.272926,0.222452
0.086294,0.172014,0.231599,0.079565,0.122587,0.231024,0.290014,0.234807
0.091448,0.169461,0.226861,0.078509,0.119744,0.232967,0.300595,0.248689
0.096724,0.166631,0.216734,0.079226,0.120858,0.234124,0.313279,0.263682
0.101128,0.163047,0.208897,0.080349,0.121208,0.234525,0.324813,0.279225
0.107214,0.161413,0.200414,0.082291,0.124129,0.237965,0.340571,0.298361
0.110202,0.161179,0.199042,0.083733,0.126846,0.241063,0.344123,0.304977
0.121273,0.163650,0.200118,0.088416,0.136178,0.260698,0.351809,0.322140
0.135379,0.167223,0.204263,0.091700,0.139102,0.281063,0.360487,0.337224
0.153285,0.171487,0.206994,0.095741,0.138542,0.301251,0.369669,0.348371
0.177810,0.175269,0.217010,0.101585,0.139812,0.328583,0.388822,0.362559
0.185696,0.176883,0.223692,0.105118,0.141219,0.334177,0.396290,0.370268
0.198850,0.183632,0.235809,0.110682,0.148779,0.348137,0.409159,0.385390
0.217370,0.187761,0.246815,0.117409,0.162407,0.364601,0.430353,0.404663
0.230453,0.189012,0.248971,0.121381,0.175790,0.377379,0.439538,0.417791
0.253029,0.201905,0.248189,0.122462,0.191837,0.393706,0.450669,0.436761
0.258920,0.207945,0.247582,0.122328,0.197498,0.398135,0.454805,0.443954
0.268567,0.217024,0.248753,0.121962,0.205956,0.408153,0.462591,0.455339
0.281668,0.226608,0.251104,0.121849,0.219981,0.428777,0.476255,0.474496
0.286598,0.228756,0.253582,0.123079,0.225031,0.437103,0.480275,0.478782
0.290246,0.230817,0.255716,0.125322,0.230314,0.445685,0.482458,0.482918
0.293777,0.231342,0.256766,0.127220,0.236475,0.456000,0.483753,0.486854
0.306358,0.233634,0.264104,0.136734,0.258535,0.479958,0.486959,0.497850
0.312495,0.232009,0.267254,0.143315,0.270337,0.491805,0.485643,0.500611
0.325578,0.232324,0.270734,0.152195,0.293148,0.502919,0.489671,0.507795
0.330175,0.232856,0.272360,0.153617,0.295933,0.501224,0.489227,0.508637
0.342692,0.235765,0.272013,0.158302,0.303103,0.497255,0.485019,0.507998
0.346793,0.236724,0.272192,0.159847,0.308563,0.496930,0.485693,0.508885
0.359097,0.236071,0.273509,0.168959,0.317981,0.494086,0.492362,0.514608
0.373571,0.237117,0.272794,0.177433,0.329296,0.492370,0.499724,0.517715
0.379647,0.239139,0.274984,0.184748,0.336627,0.492026,0.500783,0.518779
0.407685,0.248726,0.288983,0.213724,0.384528,0.478310,0.493571,0.528131
0.413822,0.248563,0.288438,0.219103,0.392304,0.478584,0.491198,0.527472
0.419364,0.248831,0.288588,0.223502,0.399542,0.478952,0.488322,0.525736
0.429516,0.249608,0.288538,0.229048,0.407686,0.471323,0.482068,0.522255
0.433108,0.251081,0.290844,0.230997,0.410722,0.470633,0.479894,0.523070
0.438021,0.252511,0.293207,0.233194,0.413705,0.470048,0.477420,0.524047
0.454696,0.255769,0.301040,0.243122,0.422992,0.464260,0.478083,0.530910
0.460234,0.257962,0.304005,0.248703,0.424172,0.462318,0.481397,0.532203
0.469014,0.262068,0.307143,0.259080,0.433881,0.452049,0.487865,0.535100
0.475631,0.262146,0.308698,0.266863,0.442279,0.438301,0.494382,0.535783
0.477453,0.263305,0.309259,0.272467,0.449572,0.425587,0.499806,0.536812
0.478457,0.264060,0.309198,0.275663,0.452881,0.422357,0.501735,0.537045
0.483023,0.266564,0.309566,0.282097,0.458850,0.414668,0.504439,0.541804
0.486048,0.266434,0.307774,0.283457,0.461205,0.411547,0.502467,0.544208
0.497381,0.264924,0.300638,0.285858,0.464595,0.403528,0.499855,0.543737
0.505346,0.260137,0.302068,0.290975,0.468194,0.401665,0.500336,0.543299
0.511626,0.256251,0.315514,0.299515,0.475738,0.396071,0.502952,0.546856
0.516629,0.244588,0.330465,0.307586,0.477875,0.399618,0.504115,0.540801
0.519100,0.240064,0.336682,0.311847,0.479205,0.404258,0.505829,0.539787
0.522364,0.234144,0.342852,0.317143,0.480420,0.408414,0.507293,0.538087
0.529257,0.223956,0.352750,0.330655,0.481596,0.414717,0.504814,0.540839
0.530025,0.222034,0.356581,0.333424,0.483011,0.412878,0.504774,0.541755
0.531379,0.221018,0.357575,0.337574,0.485762,0.410481,0.503707,0.543038
0.535425,0.221118,0.356992,0.342164,0.486902,0.402975,0.502842,0.547375
0.539480,0.224228,0.358216,0.344117,0.487218,0.396309,0.502455,0.548087
0.541835,0.226431,0.359402,0.345780,0.484823,0.393399,0.500866,0.546355
0.544759,0.231796,0.364632,0.344730,0.483638,0.393956,0.501424,0.545064
0.546399,0.234822,0.366910,0.345210,0.483670,0.395672,0.503193,0.543898
0.549212,0.247235,0.372713,0.343345,0.479762,0.402915,0.507743,0.540732
0.550985,0.255773,0.374909,0.342288,0.475990,0.405578,0.511033,0.540473
0.553530,0.272282,0.379329,0.341776,0.470054,0.418592,0.517528,0.542266
0.556535,0.288586,0.395434,0.342685,0.466104,0.442851,0.535114,0.552672
0.560732,0.298653,0.409629,0.341854,0.465651,0.452018,0.539172,0.557748
0.559653,0.307732,0.424832,0.333538,0.461843,0.459630,0.535374,0.557936
0.551110,0.314749,0.440190,0.317061,0.453204,0.479851,0.522378,0.553733
0.547592,0.316107,0.441449,0.309841,0.446365,0.487658,0.521272,0.550337
0.536261,0.320181,0.440979,0.297166,0.428604,0.502795,0.517200,0.540806
0.510750,0.332779,0.445247,0.277951,0.403723,0.519540,0.512575,0.520626
0.504792,0.337150,0.447135,0.274553,0.398811,0.521613,0.512869,0.514229
0.495665,0.342982,0.458011,0.269671,0.389392,0.527097,0.509687,0.504107
0.485997,0.347322,0.465024,0.265658,0.379966,0.534164,0.505328,0.490669
0.475494,0.357659,0.471171,0.259215,0.372417,0.545321,0.497959,0.477714
0.463052,0.365433,0.475758,0.247547,0.363530,0.551993,0.484167,0.466247
0.450073,0.370955,0.479354,0.238841,0.348937,0.564321,0.470206,0.455731
0.432335,0.375243,0.478691,0.232610,0.338962,0.572140,0.453448,0.446566
0.405944,0.375224,0.478617,0.222109,0.332203,0.579881,0.430609,0.430460
0.384393,0.376123,0.480952,0.215010,0.328790,0.586008,0.417733,0.417241
0.337663,0.373217,0.485222,0.200545,0.312157,0.591034,0.392346,0.385507
0.328498,0.371540,0.482637,0.196946,0.303906,0.591923,0.382952,0.375382
0.319933,0.369757,0.479412,0.192262,0.296416,0.593000,0.374785,0.366513
0.303338,0.368510,0.475423,0.184127,0.282258,0.590373,0.356380,0.350222
0.292569,0.368795,0.472014,0.180185,0.274467,0.587729,0.348492,0.342396
0.272376,0.367154,0.466416,0.172102,0.260872,0.579773,0.330894,0.325677
0.253781,0.370897,0.463217,0.160163,0.247438,0.575597,0.312996,0.309165
0.239323,0.374299,0.462322,0.151286,0.238412,0.571457,0.297327,0.290209
0.234120,0.376434,0.460950,0.148712,0.232367,0.569045,0.289002,0.280190
0.221435,0.378765,0.462339,0.140405,0.217429,0.562306,0.275178,0.262539
0.206655,0.375142,0.465692,0.132995,0.205272,0.558304,0.263277,0.247705
0.192282,0.369532,0.461739,0.126922,0.190852,0.546749,0.253919,0.237058
0.174860,0.360216,0.458771,0.116615,0.173768,0.531230,0.233431,0.221161
0.170289,0.355367,0.460066,0.113702,0.170238,0.525337,0.225915,0.214738
0.158718,0.341556,0.462998,0.108261,0.165558,0.520032,0.208572,0.202534
0.139269,0.324640,0.453241,0.098738,0.163112,0.500471,0.177494,0.180777
0.131732,0.318569,0.448656,0.095969,0.163715,0.499231,0.168489,0.175165
0.117809,0.305356,0.433979,0.091672,0.161013,0.500794,0.154777,0.165077
0.099409,0.297278,0.411504,0.087859,0.156849,0.498991,0.143222,0.151755
0.094601,0.297293,0.408730,0.087224,0.154968,0.493695,0.141793,0.148732
0.082319,0.298045,0.412472,0.085887,0.150621,0.473903,0.132903,0.145843
0.080180,0.299477,0.413968,0.085850,0.148992,0.472359,0.130438,0.145951
0.076836,0.300001,0.414840,0.084926,0.147464,0.469956,0.126416,0.146734
0.071091,0.296012,0.410274,0.082694,0.148934,0.478192,0.120111,0.147449
0.069297,0.294634,0.409015,0.081755,0.151407,0.479219,0.117433,0.145688
0.064238,0.293911,0.408171,0.080390,0.157604,0.476642,0.112839,0.144432
0.061867,0.292592,0.410193,0.079374,0.160611,0.474589,0.111497,0.144702
0.056332,0.289549,0.416915,0.076113,0.168779,0.478404,0.110962,0.154985
0.059405,0.288666,0.422761,0.070675,0.171331,0.483141,0.115887,0.164302
0.060343,0.288368,0.424351,0.068780,0.171036,0.483875,0.117592,0.166758
0.065284,0.284528,0.425169,0.066324,0.168192,0.480514,0.119973,0.173461
0.068665,0.282654,0.423395,0.064086,0.165547,0.476189,0.120899,0.179429
0.070408,0.282752,0.420735,0.062343,0.163857,0.477225,0.120962,0.182329
0.077657,0.291336,0.415878,0.060264,0.163532,0.483680,0.121036,0.189028
0.086664,0.301665,0.407492,0.058624,0.166148,0.484006,0.119999,0.205930
0.089577,0.303997,0.405829,0.057766,0.169926,0.486907,0.119689,0.212146
0.091766,0.306509,0.404495,0.056830,0.173125,0.487921,0.119939,0.220446
0.104128,0.318696,0.399423,0.053028,0.186798,0.483072,0.122027,0.242604
0.107612,0.315434,0.392415,0.052126,0.191139,0.474381,0.124005,0.249057
0.110258,0.312465,0.390408,0.048172,0.190681,0.476277,0.126453,0.254422
0.111517,0.315796,0.382822,0.047442,0.194822,0.485158,0.126644,0.256236
0.111955,0.317330,0.378856,0.047736,0.197952,0.490859,0.126781,0.256804
0.112412,0.318738,0.375587,0.047854,0.200602,0.497070,0.127522,0.256728
0.112798,0.319938,0.373815,0.047959,0.202846,0.502967,0.128596,0.256428
0.113020,0.321913,0.370706,0.048047,0.204745,0.508259,0.129219,0.255966
0.113222,0.323529,0.366697,0.049146,0.205029,0.513927,0.130134,0.258090
0.114345,0.322502,0.359903,0.050254,0.204065,0.516100,0.130309,0.263277
0.115160,0.322129,0.360504,0.050438,0.204393,0.515773,0.130456,0.266787
0.116558,0.322862,0.362386,0.050062,0.202448,0.514127,0.130345,0.273220
0.118195,0.326011,0.363029,0.049903,0.202667,0.505317,0.129768,0.276873
0.119152,0.326951,0.362184,0.050212,0.201906,0.499445,0.129448,0.278510
0.119841,0.326697,0.366270,0.050314,0.199445,0.488844,0.128013,0.281073
0.120434,0.323047,0.370001,0.050500,0.196929,0.482377,0.124816,0.284534
0.120491,0.318161,0.364574,0.050546,0.194861,0.475922,0.120643,0.288064
0.119598,0.308924,0.357184,0.052011,0.197254,0.481246,0.116399,0.285521
0.119734,0.305453,0.354962,0.053344,0.199820,0.480285,0.116918,0.284029
0.120175,0.302597,0.354116,0.054457,0.200826,0.471828,0.117869,0.283812
0.120318,0.299813,0.350273,0.055426,0.194508,0.449610,0.118719,0.281312
0.121300,0.296525,0.351828,0.054788,0.186210,0.441585,0.118275,0.281660
0.121919,0.289620,0.349812,0.053688,0.179478,0.431497,0.116583,0.277866
0.120546,0.281046,0.343481,0.053552,0.175338,0.424941,0.113476,0.269391
0.118576,0.277051,0.341066,0.054368,0.173561,0.419069,0.112024,0.264849
0.113572,0.269979,0.333265,0.057861,0.170143,0.409900,0.106379,0.252434
0.107037,0.267234,0.329511,0.058733,0.169570,0.406341,0.104901,0.243294
0.104399,0.264090,0.327295,0.059149,0.169445,0.405907,0.104050,0.239153
0.099692,0.258914,0.327126,0.059772,0.168873,0.396758,0.102206,0.231091
0.096521,0.252612,0.326570,0.059926,0.167149,0.388938,0.100838,0.227006
0.091591,0.240513,0.321364,0.058956,0.164287,0.375739,0.099481,0.217494
0.086005,0.229574,0.317294,0.057992,0.153094,0.356214,0.098064,0.196821
0.082372,0.220526,0.314653,0.057259,0.144447,0.344830,0.098084,0.179459
0.072320,0.210028,0.317603,0.057865,0.131334,0.336748,0.097273,0.163761
0.069684,0.207012,0.319421,0.058869,0.128117,0.333772,0.096954,0.159948
0.065661,0.205258,0.322377,0.060021,0.123103,0.327842,0.094684,0.153831
0.062704,0.202615,0.321131,0.061912,0.120357,0.322350,0.093448,0.149906
0.059050,0.189673,0.323370,0.061944,0.107083,0.304909,0.094639,0.145674
0.057484,0.181013,0.324800,0.061680,0.100720,0.294089,0.099368,0.143083
0.056800,0.177912,0.324763,0.061496,0.099244,0.289501,0.100989,0.141119
0.055179,0.172707,0.323288,0.061027,0.096937,0.281547,0.103564,0.135444
0.052600,0.171281,0.313458,0.060978,0.092842,0.275624,0.105589,0.126864
0.051896,0.170973,0.310952,0.061803,0.089937,0.274770,0.106310,0.125171
0.049919,0.170473,0.307894,0.063298,0.085409,0.272492,0.110929,0.122600
0.048609,0.166420,0.299209,0.064929,0.082015,0.267335,0.120746,0.130587
0.048979,0.163394,0.299244,0.065970,0.080933,0.263468,0.126354,0.137055
0.050617,0.161189,0.302081,0.066688,0.080444,0.266420,0.130698,0.140013
0.055438,0.157072,0.303658,0.066881,0.076733,0.269666,0.141469,0.144522
0.057717,0.154570,0.303806,0.066166,0.074692,0.269930,0.145925,0.147496
0.061783,0.145640,0.301376,0.065290,0.070447,0.270077,0.151015,0.155953
0.070559,0.133597,0.297150,0.066715,0.068705,0.270910,0.156525,0.162431
0.073998,0.130577,0.294766,0.067515,0.068562,0.271321,0.158977,0.164361
0.076929,0.128020,0.290753,0.068375,0.068422,0.271040,0.161402,0.165834
0.079022,0.123918,0.283736,0.069035,0.068304,0.270802,0.163671,0.167305
0.082191,0.116219,0.268178,0.070709,0.068119,0.275411,0.167372,0.168158
0.084557,0.109759,0.258460,0.072809,0.067415,0.275404,0.172602,0.170422
0.087966,0.106287,0.250832,0.076305,0.068377,0.271084,0.183584,0.176100
0.095123,0.112271,0.248916,0.075922,0.067298,0.264619,0.196409,0.183649
0.104055,0.115772,0.249662,0.076869,0.069604,0.268219,0.202574,0.190886
0.107579,0.118493,0.250208,0.077121,0.070343,0.271059,0.204838,0.194401
0.113803,0.125761,0.248626,0.078474,0.072260,0.274872,0.211601,0.205179
0.117335,0.133265,0.248700,0.082053,0.076534,0.281918,0.218426,0.227746
0.118066,0.135185,0.248209,0.084090,0.079482,0.284292,0.219586,0.234551
0.119212,0.136810,0.247639,0.086006,0.082219,0.285798,0.220983,0.243082
0.120963,0.137301,0.250482,0.088986,0.086553,0.296147,0.229174,0.258431
0.122179,0.138357,0.250656,0.090365,0.088132,0.299740,0.234114,0.265373
0.123418,0.138463,0.248980,0.091771,0.090413,0.302320,0.238657,0.273559
0.132528,0.141689,0.247461,0.093535,0.101417,0.309928,0.253828,0.293397
0.136605,0.143239,0.246150,0.093819,0.104719,0.313554,0.259409,0.298800
0.146186,0.147658,0.244737,0.093923,0.111236,0.321629,0.276798,0.315770
0.149266,0.151482,0.245212,0.094063,0.112289,0.326831,0.282443,0.322945
0.152182,0.154720,0.245832,0.093773,0.113179,0.331143,0.286398,0.332122
0.157148,0.168370,0.243264,0.093921,0.115440,0.337524,0.298054,0.347774
0.159922,0.174688,0.241797,0.094005,0.117323,0.339999,0.301714,0.356138
0.169973,0.193798,0.239356,0.095042,0.124051,0.355322,0.324324,0.392478
0.171795,0.196240,0.239521,0.095614,0.125912,0.360130,0.332070,0.399996
0.176380,0.201318,0.240934,0.098041,0.131681,0.367908,0.345615,0.412350
0.181807,0.203436,0.242997,0.098643,0.137563,0.374105,0.358442,0.420051
0.191487,0.209308,0.246857,0.097839,0.142050,0.382773,0.371105,0.425906
0.201528,0.220826,0.251577,0.098073,0.144460,0.395935,0.382158,0.428396
0.215604,0.242420,0.251125,0.097851,0.150965,0.415312,0.399772,0.423582
0.218521,0.248012,0.247729,0.098599,0.153257,0.417625,0.402471,0.422653
0.220478,0.252445,0.245087,0.099650,0.156865,0.416479,0.404424,0.423465
0.227806,0.269083,0.242508,0.103229,0.176174,0.419594,0.409616,0.427046
0.232810,0.275384,0.242737,0.104524,0.183187,0.423956,0.412504,0.426404
0.237119,0.280943,0.242807,0.105887,0.188553,0.427337,0.415919,0.425780
0.246814,0.295339,0.247239,0.106968,0.204116,0.440896,0.422350,0.428024
0.250327,0.299576,0.250215,0.107028,0.209598,0.444585,0.424436,0.429583
0.257206,0.306834,0.255891,0.107963,0.223308,0.450730,0.426992,0.434918
0.262829,0.312056,0.259342,0.109509,0.240385,0.462295,0.435153,0.443688
0.268348,0.315707,0.258977,0.110916,0.251132,0.472871,0.448129,0.452531
0.274785,0.315753,0.256097,0.115881,0.258046,0.476378,0.462299,0.465475
0.282977,0.310318,0.254843,0.124166,0.272059,0.487139,0.482721,0.490256
0.285620,0.309698,0.253639,0.126709,0.273975,0.488741,0.489481,0.498769
0.298084,0.305629,0.253926,0.141031,0.296486,0.498266,0.523853,0.533234
0.302810,0.304885,0.254617,0.143168,0.301141,0.500676,0.532565,0.538913
0.310776,0.303852,0.255947,0.147370,0.305711,0.507482,0.548783,0.546181
0.313335,0.303510,0.255598,0.148647,0.307649,0.510643,0.556063,0.549499
0.325654,0.305292,0.253585,0.155250,0.316368,0.514908,0.562235,0.560231
0.341938,0.308255,0.252155,0.164048,0.325804,0.519463,0.564232,0.568638
0.359321,0.311864,0.252280,0.174231,0.334756,0.531879,0.568762,0.577543
0.365701,0.312354,0.256358,0.178133,0.340878,0.536060,0.571913,0.583824
0.373555,0.313724,0.259810,0.182102,0.346052,0.542626,0.574393,0.590111
0.393390,0.315233,0.263359,0.188563,0.355740,0.551812,0.576227,0.599586
0.413007,0.316858,0.268172,0.198373,0.367861,0.556153,0.577338,0.600399
0.438100,0.313933,0.279388,0.209738,0.381042,0.564671,0.578861,0.602953
0.445206,0.315361,0.282890,0.212302,0.384577,0.566434,0.579902,0.601967
0.452616,0.317079,0.286914,0.214223,0.389335,0.566138,0.579881,0.601147
0.472237,0.321834,0.297457,0.222438,0.402285,0.574394,0.575126,0.591730
0.477495,0.321299,0.298994,0.226156,0.408366,0.577977,0.573685,0.592220
0.484597,0.321866,0.300798,0.229755,0.412252,0.578790,0.572435,0.595937
0.501990,0.318235,0.306302,0.242572,0.431641,0.585649,0.570210,0.608171
0.514502,0.313725,0.302566,0.248266,0.440777,0.583409,0.569007,0.616895
0.531361,0.301818,0.299607,0.252947,0.447539,0.581201,0.573527,0.632033
0.534388,0.297639,0.300545,0.254156,0.449044,0.579547,0.574926,0.634778
0.540775,0.291474,0.303931,0.258810,0.452726,0.578476,0.579322,0.640359
0.546997,0.280969,0.308868,0.272493,0.453801,0.586462,0.582700,0.645404
0.546811,0.276564,0.310435,0.276773,0.453690,0.589249,0.585793,0.650269
0.547952,0.272534,0.313728,0.285712,0.454171,0.592875,0.594211,0.664303
0.548389,0.272530,0.317328,0.298254,0.458546,0.593653,0.602906,0.677110
0.548375,0.276030,0.319766,0.302581,0.461622,0.596978,0.604907,0.680103
0.555903,0.297374,0.343879,0.313956,0.457795,0.597098,0.597961,0.683919
0.557242,0.304008,0.351346,0.316566,0.460638,0.600266,0.591543,0.681728
0.559716,0.311112,0.357667,0.317248,0.464212,0.602735,0.584152,0.677014
0.565369,0.326201,0.370515,0.318214,0.468290,0.605012,0.561905,0.662022
0.566037,0.329108,0.375798,0.318297,0.467381,0.604159,0.557610,0.655782
0.562679,0.334778,0.388371,0.316356,0.466691,0.596227,0.547316,0.643057
0.559944,0.342205,0.395617,0.313196,0.460760,0.584941,0.536014,0.630328
0.555547,0.347112,0.400182,0.310309,0.449076,0.576914,0.522290,0.614619
0.546649,0.354140,0.403322,0.305664,0.440398,0.567746,0.508736,0.598417
0.539463,0.359344,0.408419,0.304637,0.434871,0.560405,0.496505,0.581431
0.534139,0.362735,0.409749,0.302164,0.430685,0.554093,0.491739,0.570929
0.518051,0.368834,0.414747,0.296221,0.421780,0.545531,0.483852,0.548539
0.508640,0.373614,0.417386,0.291887,0.416999,0.542033,0.479788,0.538896
0.494522,0.379629,0.424474,0.285326,0.408120,0.534472,0.468600,0.523104
0.468399,0.388260,0.435649,0.272831,0.387805,0.518590,0.446939,0.496414
0.457632,0.388928,0.441266,0.269579,0.382586,0.513543,0.439882,0.491278
0.445828,0.389754,0.445365,0.267084,0.376901,0.509824,0.433862,0.487368
0.412567,0.388098,0.449927,0.254415,0.360721,0.505087,0.417246,0.483962
0.402747,0.388135,0.448842,0.251513,0.357353,0.503383,0.409744,0.481995
0.394490,0.386933,0.450631,0.249057,0.355112,0.502874,0.403259,0.480693
0.367666,0.378435,0.449189,0.245122,0.348632,0.509606,0.385486,0.474281
0.360244,0.378068,0.448550,0.243633,0.346383,0.510994,0.380823,0.472460
0.352041,0.377486,0.447390,0.240050,0.344479,0.509319,0.375474,0.470711
0.329174,0.374718,0.451500,0.229476,0.327680,0.518443,0.360504,0.454287
0.319900,0.373777,0.451941,0.226026,0.320316,0.525201,0.355843,0.449348
0.311490,0.372370,0.453328,0.223129,0.314305,0.527358,0.351893,0.441788
0.280069,0.368521,0.462790,0.217545,0.305313,0.540974,0.335399,0.415115
0.261322,0.363652,0.471198,0.216272,0.303973,0.549631,0.319949,0.396416
0.240901,0.360085,0.479314,0.209498,0.298782,0.558333,0.296400,0.377013
0.228838,0.358552,0.481986,0.198739,0.289463,0.549901,0.282146,0.365149
0.223487,0.359035,0.482698,0.193654,0.284491,0.543493,0.274532,0.358368
0.211082,0.364668,0.487243,0.184300,0.274716,0.529059,0.254640,0.340049
0.197305,0.368043,0.491302,0.176470,0.265929,0.523548,0.235235,0.320984
0.186264,0.365937,0.490221,0.167609,0.256842,0.519978,0.219710,0.305151
0.180754,0.361771,0.489866,0.163618,0.250464,0.519506,0.212886,0.298026
0.168189,0.351037,0.482839,0.156981,0.240145,0.521738,0.202837,0.282040
0.157848,0.341520,0.475034,0.151380,0.230209,0.518012,0.194641,0.265407
0.134666,0.318416,0.459932,0.141234,0.204968,0.504504,0.180359,0.246148
0.122149,0.309681,0.449135,0.136507,0.198258,0.497238,0.169855,0.240009
0.108474,0.295179,0.432851,0.134365,0.200030,0.493777,0.155463,0.238332
0.104414,0.289430,0.429722,0.133605,0.201798,0.496694,0.152246,0.236513
0.101061,0.284528,0.427098,0.132686,0.203295,0.500072,0.148781,0.235154
0.093290,0.270965,0.425960,0.130856,0.207800,0.513030,0.137800,0.234415
0.092967,0.266591,0.424703,0.129054,0.208132,0.517329,0.134967,0.234481
0.091689,0.246980,0.410830,0.119995,0.204902,0.541816,0.120664,0.243457
0.090161,0.244655,0.408727,0.119433,0.205269,0.548129,0.118730,0.245539
0.088112,0.238609,0.400094,0.118448,0.206682,0.556998,0.116925,0.246930
0.085108,0.224849,0.374591,0.117731,0.207185,0.575026,0.118161,0.243232
0.084382,0.221818,0.367013,0.116398,0.207048,0.575848,0.119556,0.239462
0.082319,0.218497,0.354522,0.114007,0.204804,0.579747,0.120927,0.228500
0.080177,0.209204,0.343894,0.109247,0.199531,0.586217,0.122260,0.210898
0.080555,0.207742,0.340091,0.106398,0.196859,0.588498,0.122731,0.205047
0.089314,0.204427,0.334248,0.102920,0.196281,0.584716,0.121872,0.206063
0.099804,0.200685,0.327194,0.101043,0.197836,0.586706,0.121751,0.207118
0.102966,0.199435,0.323129,0.099309,0.199573,0.585966,0.122480,0.208052
0.105560,0.198376,0.319749,0.097297,0.200108,0.584495,0.122532,0.209568
0.111415,0.199781,0.308079,0.093569,0.199998,0.586928,0.117366,0.218688
0.113416,0.200607,0.300867,0.092438,0.197918,0.586199,0.114916,0.222546
0.116433,0.201307,0.293069,0.091238,0.195947,0.585478,0.112841,0.226758
0.121596,0.200607,0.284427,0.089120,0.194664,0.583013,0.110093,0.235972
0.125724,0.200221,0.280506,0.088590,0.194010,0.581694,0.109084,0.240294
0.131757,0.199910,0.271202,0.088005,0.193031,0.584050,0.109393,0.246951
0.138075,0.193737,0.261316,0.087474,0.189937,0.587644,0.112748,0.254662
0.139541,0.189277,0.258115,0.086357,0.189021,0.587530,0.113664,0.256597
0.143648,0.176963,0.255879,0.085410,0.187924,0.594852,0.118369,0.268554
0.144290,0.176435,0.257615,0.084570,0.187636,0.592816,0.120021,0.271775
0.144834,0.175988,0.257640,0.083859,0.186605,0.589848,0.121534,0.274768
0.146590,0.174018,0.253178,0.081944,0.184849,0.591401,0.126500,0.285164
0.147012,0.173802,0.252015,0.081248,0.185527,0.592088,0.127459,0.287809
0.147116,0.173464,0.253987,0.079528,0.187182,0.593044,0.129954,0.290248
0.147061,0.174009,0.261469,0.077698,0.186954,0.590542,0.132017,0.287435
0.146979,0.174221,0.265612,0.075930,0.183896,0.587999,0.132064,0.282901
0.146703,0.175946,0.268794,0.074433,0.180715,0.585847,0.132471,0.279204
0.146565,0.179655,0.271707,0.071074,0.171071,0.579201,0.135422,0.271009
0.146724,0.183073,0.269393,0.069756,0.165885,0.576617,0.136004,0.264952
0.145518,0.189706,0.267404,0.068222,0.162278,0.572132,0.136642,0.261884
0.144443,0.192617,0.267959,0.068519,0.161965,0.569187,0.137150,0.260626
0.141760,0.196176,0.274790,0.070805,0.161727,0.561258,0.137908,0.255168
0.140763,0.197456,0.277511,0.071865,0.161634,0.560839,0.138861,0.252649
0.140712,0.197635,0.282224,0.073761,0.160704,0.552234,0.141621,0.251896
0.141783,0.200348,0.282947,0.075053,0.157802,0.543333,0.142885,0.250440
0.143311,0.203912,0.289052,0.075775,0.155442,0.532618,0.143122,0.251398
0.143483,0.206615,0.293670,0.076294,0.155649,0.529164,0.144119,0.251280
0.145216,0.209709,0.303219,0.077288,0.155844,0.511732,0.144880,0.250194
0.145812,0.209683,0.307411,0.077442,0.156045,0.503332,0.145712,0.249894
0.146262,0.209607,0.308686,0.077353,0.156758,0.494604,0.145512,0.249493
0.145626,0.203861,0.308431,0.078658,0.153024,0.475528,0.145441,0.244987
0.141168,0.202099,0.309867,0.078770,0.150144,0.474192,0.144971,0.241793
0.132213,0.199625,0.311221,0.078881,0.143337,0.469509,0.144437,0.232310
0.120158,0.197347,0.318896,0.079397,0.138839,0.451940,0.143090,0.221319
0.116649,0.197276,0.321763,0.079882,0.137450,0.445772,0.142596,0.217068
0.113673,0.195428,0.324117,0.080313,0.135994,0.438296,0.142478,0.212350
0.103749,0.190453,0.329058,0.079932,0.132613,0.415324,0.142513,0.198791
0.093020,0.191099,0.333155,0.079647,0.126288,0.394802,0.143574,0.184287
0.078986,0.193928,0.343239,0.079577,0.120095,0.382118,0.147140,0.169459
0.075364,0.194182,0.344845,0.078475,0.120008,0.379621,0.147418,0.165538
0.072217,0.194241,0.345302,0.077538,0.119934,0.378794,0.149073,0.162057
0.064725,0.193681,0.344141,0.075810,0.118046,0.376398,0.156984,0.153925
0.062827,0.191926,0.342554,0.075592,0.117587,0.372820,0.159901,0.151317
0.061222,0.189830,0.338748,0.075750,0.117199,0.366474,0.162187,0.149166
0.059862,0.188285,0.335624,0.075744,0.117167,0.359661,0.163310,0.147253
0.055584,0.185711,0.326395,0.074916,0.116505,0.345849,0.166654,0.139029
0.052589,0.187338,0.324413,0.074792,0.116131,0.336328,0.167178,0.134239
0.050202,0.191457,0.324169,0.075473,0.114904,0.329583,0.168139,0.130541
0.048427,0.195325,0.319938,0.078210,0.110743,0.329074,0.171975,0.130406
0.047616,0.194755,0.311029,0.077955,0.106268,0.332878,0.176535,0.131370
0.047313,0.193249,0.308377,0.077894,0.105626,0.332836,0.177384,0.131833
0.047057,0.191974,0.306132,0.078066,0.105082,0.332921,0.179098,0.132819
0.046560,0.189447,0.308744,0.079621,0.103981,0.327815,0.180264,0.133949
0.046145,0.184664,0.313041,0.081035,0.103218,0.318542,0.184682,0.135227
0.048727,0.175196,0.310104,0.078204,0.104294,0.310577,0.198645,0.152005
0.049302,0.171814,0.309486,0.077144,0.103893,0.310151,0.202139,0.152099
0.047431,0.164550,0.306258,0.076518,0.103266,0.309473,0.208301,0.151280
0.045178,0.155276,0.312074,0.078316,0.102605,0.302418,0.216146,0.155024
0.044504,0.151053,0.312777,0.079097,0.101289,0.300181,0.217986,0.157445
0.042359,0.144533,0.313755,0.080516,0.099809,0.300952,0.223146,0.161303
0.039565,0.140486,0.311986,0.082665,0.099035,0.302596,0.228802,0.168468
0.042053,0.142281,0.312344,0.084734,0.098355,0.307578,0.236644,0.182275
0.047263,0.148392,0.312050,0.089749,0.099601,0.305454,0.245606,0.203129
0.050720,0.149889,0.308608,0.091003,0.098613,0.306397,0.248457,0.211787
0.056344,0.150310,0.302995,0.092025,0.095651,0.308548,0.254164,0.225819
0.062258,0.150781,0.299560,0.093348,0.092820,0.305844,0.266061,0.245160
0.063731,0.151900,0.299963,0.093694,0.094078,0.305950,0.272542,0.250371
0.068213,0.152616,0.301940,0.094471,0.100155,0.314641,0.281806,0.260922
0.074633,0.150814,0.293407,0.098005,0.110505,0.334842,0.300005,0.274571
0.076664,0.149459,0.290650,0.099345,0.113926,0.336857,0.305191,0.279052
0.081868,0.151544,0.286371,0.101601,0.118620,0.338931,0.319036,0.288932
0.091093,0.171762,0.289322,0.104150,0.126653,0.343869,0.325765,0.300082
0.093920,0.178147,0.291437,0.103864,0.128690,0.346497,0.326338,0.305072
0.105200,0.195129,0.295728,0.102381,0.130137,0.356939,0.333221,0.323933
0.107831,0.196314,0.295551,0.102483,0.130227,0.358671,0.336196,0.327256
0.110588,0.197560,0.295788,0.103426,0.130303,0.360744,0.339869,0.333177
0.117595,0.194353,0.295267,0.105486,0.133774,0.368897,0.349136,0.349855
0.120162,0.192594,0.297051,0.105642,0.135343,0.372079,0.351653,0.352907
0.126886,0.190038,0.302901,0.105042,0.138525,0.374501,0.355894,0.357827
0.130937,0.189236,0.306684,0.105228,0.140013,0.374464,0.356562,0.359475
0.142798,0.192566,0.313901,0.106867,0.148793,0.377634,0.369110,0.369578
0.155134,0.210273,0.322068,0.110215,0.159706,0.386513,0.376462,0.379737
0.159920,0.215018,0.320743,0.111163,0.163316,0.388502,0.378796,0.384224
0.165779,0.218614,0.319621,0.111740,0.166983,0.389023,0.379653,0.388063
0.178202,0.222159,0.317063,0.113613,0.177612,0.395610,0.380924,0.390550
0.185182,0.222834,0.316604,0.115064,0.181281,0.397142,0.385389,0.390170
0.193864,0.223601,0.317682,0.117171,0.184058,0.398438,0.388691,0.390651
0.210286,0.225718,0.319932,0.124946,0.195116,0.402186,0.394160,0.394018
0.218993,0.226611,0.319070,0.128425,0.202574,0.406608,0.396192,0.394664
0.232035,0.228300,0.319612,0.133877,0.218910,0.417400,0.401279,0.397817
0.255403,0.230728,0.303354,0.137269,0.245037,0.454040,0.409613,0.396985
0.260614,0.231812,0.299461,0.138232,0.251933,0.460309,0.410536,0.395924
0.270771,0.232151,0.294585,0.140184,0.270894,0.474856,0.417258,0.399357
0.275275,0.232622,0.292380,0.140761,0.280295,0.479960,0.422444,0.401483
0.286124,0.232678,0.290774,0.143143,0.298905,0.494357,0.436001,0.403943
0.291412,0.231878,0.289324,0.146525,0.307917,0.499420,0.441392,0.404702
0.312373,0.228995,0.284209,0.153433,0.329008,0.509880,0.455023,0.404228
0.323135,0.226113,0.283351,0.168396,0.354910,0.527443,0.468328,0.397979
0.346416,0.224099,0.286201,0.187510,0.380096,0.540002,0.484438,0.401108
0.355021,0.225395,0.286300,0.193254,0.387868,0.546014,0.485172,0.403169
0.370485,0.227118,0.292873,0.210345,0.401202,0.552957,0.488062,0.403526
0.378102,0.227293,0.295487,0.218820,0.404827,0.553408,0.491853,0.403981
0.389668,0.227568,0.301178,0.231143,0.416322,0.548777,0.497261,0.412194
0.407271,0.227798,0.311310,0.252824,0.432754,0.549530,0.495859,0.430691
0.416223,0.225074,0.315568,0.260471,0.438800,0.552410,0.496497,0.438324
0.424143,0.220151,0.316932,0.267418,0.444119,0.555539,0.497037,0.445458
0.447350,0.202582,0.320014,0.289914,0.458830,0.563710,0.501597,0.463875
0.459492,0.199112,0.321104,0.301677,0.474176,0.567903,0.509692,0.470726
0.471708,0.195788,0.322409,0.312375,0.488440,0.574592,0.519475,0.477122
0.489610,0.195949,0.326561,0.324955,0.507583,0.579599,0.527300,0.481790
0.497768,0.196831,0.328263,0.330421,0.516886,0.582340,0.531821,0.485078
0.506408,0.199459,0.329856,0.337470,0.524807,0.586463,0.537545,0.488744
0.521523,0.204320,0.333841,0.355408,0.539490,0.588793,0.553495,0.498089
0.526954,0.206751,0.332944,0.362909,0.546485,0.592095,0.561077,0.501137
0.538813,0.221217,0.334192,0.381784,0.566308,0.603019,0.575986,0.512327
0.543426,0.225604,0.333372,0.386785,0.573871,0.609373,0.576148,0.514102
0.553866,0.224976,0.336348,0.396779,0.588507,0.618693,0.582013,0.519476
0.569371,0.225909,0.342831,0.408844,0.607846,0.629222,0.592084,0.528908
0.572629,0.228933,0.348818,0.413425,0.612803,0.631567,0.594535,0.530899
0.574669,0.232629,0.354256,0.417980,0.615004,0.629679,0.597629,0.534269
0.582422,0.241784,0.366150,0.429134,0.619778,0.626670,0.596416,0.548377
0.582717,0.243513,0.368353,0.431208,0.620243,0.623830,0.594256,0.553109
0.583403,0.248983,0.374401,0.435996,0.615775,0.613717,0.589434,0.561395
0.590068,0.270403,0.385841,0.447956,0.602659,0.575722,0.590131,0.572135
0.592980,0.276295,0.386907,0.449749,0.603512,0.570014,0.591056,0.574322
0.599248,0.301680,0.397293,0.451983,0.593564,0.558197,0.586523,0.585633
0.606594,0.317477,0.407440,0.453868,0.579120,0.552278,0.578330,0.593082
0.610279,0.330825,0.416995,0.453745,0.568874,0.540962,0.569065,0.598663
0.601736,0.347817,0.432200,0.449325,0.558212,0.529019,0.561131,0.603931
0.599419,0.353083,0.437156,0.447221,0.552647,0.522467,0.559122,0.603137
0.592710,0.373228,0.452875,0.428642,0.530598,0.512831,0.544106,0.597583
0.577459,0.386535,0.464935,0.417180,0.517294,0.514933,0.532291,0.588326
0.570143,0.394541,0.470835,0.411706,0.510626,0.512885,0.527595,0.583022
0.556649,0.408350,0.476696,0.395439,0.494670,0.513110,0.513838,0.575786
0.533630,0.439452,0.488272,0.367612,0.472467,0.505429,0.484293,0.553504
0.527613,0.446300,0.487705,0.358613,0.467083,0.503269,0.478259,0.544490
0.509145,0.457200,0.486337,0.342536,0.453571,0.494390,0.466696,0.523058
0.499670,0.463092,0.489973,0.336055,0.447411,0.492080,0.462112,0.513106
0.480518,0.473561,0.499190,0.322072,0.438010,0.482926,0.452660,0.494563
0.471940,0.476572,0.502299,0.315585,0.432811,0.480298,0.449491,0.487123
0.464663,0.478164,0.506962,0.310428,0.427702,0.479568,0.443268,0.479754
0.457414,0.480714,0.513149,0.306964,0.422771,0.478298,0.437209,0.472464
0.431439,0.490272,0.522010,0.293762,0.405903,0.480197,0.412074,0.453454
0.420614,0.494336,0.523615,0.288519,0.398150,0.480764,0.404394,0.445992
0.376926,0.522005,0.529618,0.250485,0.365262,0.480786,0.352426,0.398216
0.370651,0.527595,0.531589,0.243770,0.359899,0.482923,0.343249,0.390059
0.365228,0.530220,0.531570,0.237171,0.354207,0.483443,0.335481,0.381482
0.351805,0.536168,0.532539,0.226016,0.342798,0.480539,0.321628,0.370171
0.343549,0.538199,0.531109,0.220075,0.333927,0.481156,0.314903,0.365810
0.336647,0.538838,0.528968,0.215724,0.326567,0.480532,0.307400,0.358778
0.312234,0.535383,0.519597,0.202343,0.300893,0.476408,0.288117,0.337946
0.304251,0.533013,0.514828,0.197182,0.293859,0.479249,0.283022,0.332285
0.297432,0.529871,0.512911,0.192136,0.288745,0.481654,0.278412,0.327058
0.269591,0.522454,0.506485,0.176532,0.276563,0.489889,0.264893,0.304865
0.261275,0.521449,0.504036,0.171752,0.272076,0.494302,0.261400,0.295738
0.243170,0.517059,0.499339,0.161792,0.264721,0.506268,0.255909,0.281169
0.229050,0.510875,0.492088,0.152419,0.258842,0.512904,0.245867,0.274354
0.222982,0.508329,0.491353,0.148481,0.256759,0.515478,0.240338,0.271498
0.215069,0.505551,0.492040,0.145681,0.254154,0.514648,0.234113,0.267194
0.196970,0.499622,0.496525,0.140720,0.245816,0.511702,0.221503,0.257897
0.189104,0.492555,0.496245,0.138295,0.241007,0.510710,0.217427,0.252358
0.181755,0.486524,0.496669,0.136242,0.236937,0.513263,0.212628,0.244783
0.159485,0.467967,0.494766,0.130915,0.229043,0.522094,0.204363,0.221214
0.152048,0.464734,0.492753,0.128604,0.226744,0.524697,0.200773,0.214990
0.130377,0.448375,0.491978,0.121734,0.216972,0.524303,0.185538,0.199159
0.125930,0.443494,0.490527,0.120772,0.215522,0.523308,0.181558,0.197189
0.122111,0.437489,0.489124,0.119664,0.214295,0.522846,0.178799,0.195110
0.114025,0.423002,0.477936,0.117236,0.211144,0.509915,0.171440,0.190424
0.112119,0.416256,0.474633,0.117034,0.211006,0.506947,0.170188,0.190906
0.108493,0.398858,0.468494,0.116404,0.211919,0.501053,0.171280,0.191937
0.104629,0.382815,0.462119,0.115141,0.211172,0.498399,0.172931,0.190556
0.103213,0.377234,0.458770,0.115873,0.208922,0.498313,0.171776,0.190462
0.101392,0.370002,0.453976,0.116374,0.206366,0.500925,0.170799,0.190309
0.099424,0.350323,0.441389,0.114936,0.203004,0.526532,0.172334,0.192060
0.100649,0.345510,0.435747,0.113789,0.201906,0.528171,0.171665,0.196192
0.102037,0.340002,0.422872,0.111749,0.201820,0.530996,0.170883,0.206936
0.102709,0.338362,0.412795,0.110174,0.200710,0.528883,0.170018,0.216255
0.103302,0.337518,0.404814,0.107491,0.199828,0.524673,0.168839,0.221293
0.105758,0.339128,0.392919,0.101950,0.197694,0.515293,0.166566,0.240404
0.105862,0.337909,0.392601,0.100641,0.198631,0.513269,0.166332,0.244952
0.106487,0.335936,0.392257,0.098582,0.203515,0.512608,0.166077,0.252543
0.107878,0.319100,0.386895,0.096027,0.209257,0.511105,0.169878,0.269845
0.108989,0.312522,0.384864,0.095836,0.211552,0.511738,0.171216,0.275534
0.111671,0.297230,0.384105,0.095304,0.211410,0.512544,0.175664,0.289607
0.111834,0.294849,0.385413,0.094653,0.211874,0.511931,0.177540,0.291234
0.113686,0.292804,0.387854,0.092360,0.212674,0.519014,0.180593,0.300362
0.116724,0.292556,0.387268,0.090463,0.215954,0.524978,0.186721,0.314301
0.117215,0.293110,0.383817,0.090059,0.215487,0.526877,0.189038,0.316259
0.120815,0.298354,0.375359,0.089154,0.213050,0.528120,0.194753,0.321001
0.125591,0.309810,0.371967,0.087144,0.209202,0.521963,0.197796,0.327980
0.126843,0.313724,0.373117,0.086332,0.207920,0.518285,0.199163,0.330063
0.127863,0.317692,0.374090,0.086916,0.206965,0.516309,0.200996,0.330015
0.129304,0.322195,0.372173,0.092253,0.202113,0.517169,0.205224,0.329914
0.129449,0.324741,0.370470,0.093177,0.200893,0.519915,0.208037,0.329921
0.129857,0.334105,0.363454,0.094563,0.203885,0.525209,0.213121,0.332531
0.130019,0.339633,0.354063,0.096594,0.208847,0.526161,0.218544,0.339590
0.129687,0.339415,0.350927,0.096936,0.209588,0.524710,0.220068,0.339680
0.128353,0.335694,0.346375,0.096717,0.211912,0.526326,0.222564,0.339725
0.128020,0.337152,0.335385,0.094728,0.211931,0.529578,0.224468,0.338151
0.128011,0.341406,0.333447,0.093421,0.211800,0.533223,0.226563,0.338517
0.126495,0.351805,0.328689,0.091046,0.212222,0.537487,0.230553,0.339596
0.124873,0.365766,0.325661,0.090543,0.210129,0.539392,0.233577,0.339133
0.123784,0.372346,0.322786,0.090938,0.210329,0.547268,0.233590,0.337046
0.121812,0.373209,0.318552,0.090569,0.213870,0.557188,0.234364,0.335649
0.121190,0.373476,0.318671,0.089782,0.214845,0.557580,0.237123,0.335640
0.120030,0.374201,0.318771,0.089115,0.214743,0.557663,0.239842,0.335986
0.118384,0.373492,0.317773,0.088787,0.212845,0.549059,0.245419,0.335905
0.116956,0.372885,0.318302,0.088408,0.216567,0.539587,0.249469,0.333372
0.115716,0.369434,0.322970,0.087263,0.214928,0.532143,0.254671,0.324627
0.113595,0.362265,0.328668,0.086839,0.208210,0.525496,0.260628,0.317196
0.112373,0.357671,0.330491,0.087094,0.205498,0.525702,0.262183,0.313430
0.111275,0.339764,0.322984,0.090449,0.194545,0.520931,0.265390,0.302521
0.111567,0.336386,0.322059,0.090899,0.192569,0.520533,0.265226,0.300853
0.111471,0.332303,0.326665,0.092069,0.189118,0.523629,0.263893,0.295100
0.106509,0.329067,0.328965,0.091469,0.182258,0.516168,0.261745,0.286860
0.104620,0.330050,0.327270,0.091179,0.180263,0.511653,0.262065,0.283409
0.101649,0.328772,0.323763,0.091395,0.176516,0.501234,0.260014,0.278311
0.095513,0.326024,0.318948,0.092816,0.171050,0.479496,0.258124,0.263557
0.092436,0.327052,0.316061,0.094833,0.166730,0.469572,0.255891,0.253632
0.085797,0.319306,0.321881,0.097116,0.163907,0.455326,0.248735,0.243192
0.083457,0.314614,0.324716,0.097560,0.163947,0.454010,0.247646,0.240284
0.080197,0.304691,0.325885,0.097447,0.164589,0.449213,0.248737,0.234661
0.079037,0.300045,0.324358,0.097539,0.164858,0.446984,0.248657,0.231154
0.077055,0.292093,0.322926,0.093351,0.164956,0.441401,0.247207,0.225339
0.076450,0.289927,0.321538,0.090660,0.164706,0.436676,0.247053,0.223785
0.075698,0.285346,0.320282,0.086486,0.161657,0.430102,0.245884,0.220272
0.075529,0.279765,0.320144,0.085149,0.158549,0.425901,0.244627,0.218396
0.075282,0.273643,0.320028,0.083972,0.154378,0.418967,0.244523,0.215975
0.074241,0.264230,0.322189,0.081663,0.147486,0.404288,0.245425,0.211255
0.073832,0.260655,0.322784,0.080658,0.145726,0.397183,0.243984,0.211489
0.073666,0.258029,0.322630,0.079940,0.145147,0.391808,0.242479,0.211852
0.073197,0.254819,0.323180,0.079800,0.142285,0.389265,0.247419,0.210233
0.073214,0.257685,0.322021,0.080026,0.141969,0.392359,0.249568,0.208815
0.073737,0.258930,0.319986,0.080327,0.142407,0.393159,0.250723,0.209172
0.075018,0.250683,0.315787,0.083118,0.142525,0.395882,0.252678,0.209204
0.076114,0.247234,0.313575,0.084632,0.142769,0.396967,0.254169,0.212535
0.076881,0.242705,0.309159,0.084656,0.143064,0.398921,0.255432,0.215479
0.081258,0.233923,0.297822,0.083698,0.141190,0.394082,0.260599,0.224091
0.085683,0.228826,0.290530,0.083132,0.134295,0.382460,0.264277,0.228386
0.087015,0.227527,0.288320,0.083234,0.132855,0.379381,0.264546,0.228389
0.089967,0.228583,0.288867,0.083441,0.130417,0.378159,0.262637,0.228077
0.091440,0.229891,0.291828,0.083907,0.131250,0.379993,0.261696,0.227886
0.091555,0.230349,0.293423,0.084327,0.131578,0.382591,0.263958,0.227961
0.091111,0.230737,0.295488,0.084960,0.130988,0.384790,0.265959,0.226736
0.089837,0.231614,0.293669,0.086792,0.130681,0.396674,0.268446,0.224061
0.088592,0.230104,0.288895,0.086588,0.131557,0.406264,0.273518,0.220167
0.088838,0.232255,0.285475,0.086727,0.133548,0.416685,0.282045,0.217047
0.090159,0.233210,0.284236,0.086031,0.135631,0.421062,0.286641,0.216863
0.092900,0.235489,0.272553,0.083372,0.134500,0.415246,0.298852,0.219059
0.097168,0.235513,0.260510,0.084654,0.135845,0.411826,0.307113,0.220032
0.104773,0.233696,0.249434,0.086635,0.141590,0.425125,0.317289,0.225615
0.106487,0.232134,0.245157,0.086533,0.143471,0.428587,0.318932,0.228940
0.109267,0.231546,0.243026,0.086876,0.144260,0.431642,0.321603,0.231597
0.120190,0.224486,0.242836,0.087805,0.148388,0.444485,0.328390,0.237502
0.124349,0.220760,0.244476,0.088100,0.149292,0.448757,0.331251,0.240315
0.146405,0.231274,0.246064,0.094835,0.156534,0.461999,0.357543,0.262115
0.150770,0.235367,0.245161,0.096232,0.158363,0.463239,0.365444,0.268029
0.160947,0.242269,0.246143,0.098021,0.161143,0.465987,0.377716,0.278209
0.171892,0.244893,0.246140,0.098578,0.163136,0.470449,0.391667,0.292557
0.182073,0.254535,0.246517,0.100090,0.165047,0.476130,0.405044,0.310985
0.193664,0.265119,0.244475,0.101448,0.168080,0.479104,0.417396,0.327022
0.203213,0.272530,0.241488,0.102589,0.171014,0.485054,0.426832,0.341483
0.207182,0.275225,0.238039,0.103072,0.172532,0.489082,0.431080,0.346046
0.212465,0.277837,0.236788,0.103495,0.173992,0.490751,0.434911,0.348405
0.231522,0.288877,0.237318,0.103383,0.177841,0.492317,0.442294,0.362174
0.236359,0.291369,0.237089,0.103095,0.179034,0.491394,0.444778,0.367198
0.242061,0.289876,0.239951,0.103440,0.181449,0.491451,0.447652,0.372575
0.255609,0.291024,0.247844,0.104127,0.188508,0.485014,0.452939,0.381135
0.261173,0.291452,0.249368,0.103406,0.190551,0.482650,0.452041,0.384086
0.271209,0.295918,0.253303,0.101745,0.197624,0.483022,0.455645,0.386598
0.287507,0.306217,0.260705,0.101795,0.212139,0.487953,0.460531,0.392124
0.292842,0.310443,0.264593,0.103296,0.216113,0.489410,0.461353,0.393486
0.302035,0.321605,0.269239,0.107205,0.225752,0.494481,0.466472,0.402363
0.306994,0.325744,0.270449,0.109238,0.229998,0.496564,0.467245,0.409979
0.318057,0.333226,0.271498,0.113087,0.236710,0.497238,0.469261,0.424583
0.338925,0.341587,0.267326,0.118124,0.240736,0.506012,0.469822,0.449735
0.342615,0.343937,0.266344,0.118995,0.242927,0.506864,0.471144,0.454881
0.354801,0.347979,0.265428,0.121175,0.251757,0.514595,0.479585,0.467181
0.386729,0.350124,0.267698,0.123526,0.269304,0.519972,0.479660,0.488332
0.396041,0.350111,0.269231,0.125667,0.274049,0.519884,0.480735,0.492870
0.404559,0.349930,0.271188,0.128236,0.278187,0.519809,0.481718,0.496933
0.421654,0.344061,0.274839,0.134359,0.288316,0.516866,0.491150,0.514441
0.427303,0.340985,0.275477,0.135559,0.293481,0.519359,0.492372,0.519138
0.438066,0.336510,0.281322,0.137099,0.304769,0.519345,0.488848,0.522968
0.442598,0.336334,0.287202,0.138932,0.307835,0.516439,0.488748,0.523553
0.460202,0.340315,0.297586,0.142824,0.318791,0.520359,0.490504,0.523056
0.474789,0.347416,0.297878,0.150155,0.338655,0.524585,0.503752,0.533935
0.480605,0.349915,0.298742,0.152088,0.345506,0.525075,0.509265,0.540190
0.485740,0.351275,0.299273,0.154849,0.354026,0.528626,0.511915,0.545239
0.496945,0.349608,0.310656,0.168146,0.381685,0.543708,0.521236,0.550066
0.500312,0.348007,0.315589,0.172579,0.389067,0.545643,0.524134,0.549617
0.505141,0.346066,0.319267,0.179211,0.400827,0.552758,0.522698,0.553021
0.517123,0.339852,0.328725,0.196501,0.430894,0.569834,0.518149,0.564702
0.518923,0.333261,0.333665,0.199268,0.437913,0.573856,0.515895,0.564693
0.526508,0.321638,0.347031,0.207451,0.454124,0.590710,0.508576,0.564133
0.531028,0.320106,0.350630,0.209597,0.460678,0.592996,0.510621,0.564424
0.534817,0.318809,0.353878,0.215362,0.469259,0.597650,0.513603,0.565010
0.536736,0.313417,0.356799,0.242177,0.496771,0.610261,0.528151,0.574184
0.538772,0.311471,0.360027,0.252723,0.505063,0.614172,0.531611,0.578031
0.540291,0.307686,0.362729,0.261653,0.512862,0.616868,0.536109,0.580797
0.542080,0.304343,0.361958,0.270207,0.519561,0.618801,0.538699,0.581549
0.544263,0.299509,0.361666,0.277989,0.526714,0.622046,0.543447,0.582519
0.545541,0.274469,0.368830,0.320879,0.547401,0.639399,0.561220,0.592922
0.545413,0.271302,0.371151,0.326156,0.548873,0.641570,0.565437,0.592379
0.546181,0.268428,0.372837,0.330014,0.550917,0.645504,0.570502,0.591154
0.549727,0.261318,0.377588,0.333285,0.558753,0.651947,0.579447,0.592234
0.550755,0.261893,0.381221,0.335287,0.563740,0.654934,0.583208,0.592040
0.551238,0.264884,0.385364,0.337314,0.568226,0.658334,0.587782,0.590089
0.550986,0.269740,0.391370,0.342069,0.576537,0.664844,0.594124,0.587115
0.547652,0.274447,0.396657,0.347097,0.581041,0.662895,0.600772,0.580226
0.548256,0.278071,0.398410,0.352414,0.581731,0.660918,0.601318,0.573689
0.550102,0.279895,0.399374,0.355073,0.582065,0.659649,0.602079,0.571783
0.551536,0.281438,0.399740,0.358098,0.581525,0.658220,0.600906,0.571434
0.544971,0.287914,0.403787,0.361805,0.585541,0.654951,0.600980,0.569203
0.531990,0.295943,0.407592,0.364095,0.584561,0.654488,0.604280,0.567076
0.526655,0.300357,0.409122,0.363312,0.582988,0.655853,0.602907,0.565167
0.521350,0.303913,0.412124,0.361862,0.580973,0.658574,0.601215,0.562149
0.516398,0.308683,0.414664,0.360474,0.579070,0.661694,0.597966,0.556918
0.506483,0.319797,0.419009,0.357521,0.573158,0.667060,0.589704,0.547888
0.490879,0.340427,0.429842,0.353083,0.551712,0.658493,0.582291,0.537375
0.485743,0.346478,0.428883,0.352121,0.546147,0.656191,0.579265,0.535470
0.479493,0.353017,0.428070,0.351539,0.543560,0.654532,0.576095,0.533787
0.458621,0.357228,0.427804,0.351295,0.528017,0.652144,0.561609,0.526850
0.451692,0.356857,0.430184,0.349354,0.519439,0.651398,0.552413,0.522602
0.436686,0.359485,0.431961,0.343920,0.504838,0.648508,0.533490,0.515557
0.430311,0.362235,0.431402,0.340617,0.495903,0.645544,0.526338,0.513685
0.412306,0.363300,0.426204,0.322337,0.462962,0.639050,0.506052,0.510270
0.406782,0.362409,0.425530,0.316519,0.452971,0.640331,0.497486,0.507731
0.387688,0.363844,0.427859,0.304055,0.430492,0.636295,0.476446,0.494502
0.361594,0.371939,0.423793,0.284970,0.401598,0.637502,0.454022,0.467798
0.337959,0.373150,0.415946,0.274752,0.384159,0.632546,0.439413,0.448223
0.329104,0.372917,0.416294,0.271934,0.377257,0.632137,0.430464,0.441641
0.314350,0.373014,0.415617,0.257130,0.357315,0.624084,0.409749,0.427442
0.294156,0.377873,0.409432,0.226588,0.323967,0.609394,0.379870,0.397840
0.287940,0.379824,0.407629,0.218211,0.314885,0.608589,0.369023,0.388587
0.275512,0.384580,0.402670,0.202038,0.295469,0.601797,0.348989,0.371874
0.259664,0.393310,0.398383,0.178014,0.281478,0.603550,0.319992,0.347759
0.250963,0.398154,0.396153,0.165559,0.275417,0.599873,0.307527,0.331227
0.237695,0.399890,0.389432,0.150192,0.263172,0.589085,0.285978,0.317731
0.225704,0.397949,0.379995,0.143091,0.252423,0.580709,0.270335,0.307241
0.220695,0.393555,0.374345,0.140197,0.245142,0.579249,0.262845,0.300113
0.215823,0.388105,0.369522,0.136603,0.239196,0.575446,0.255046,0.292679
0.205060,0.375248,0.358774,0.128854,0.229815,0.566422,0.240512,0.281549
0.190063,0.361935,0.346961,0.117751,0.220989,0.564416,0.219231,0.273707
0.184644,0.357486,0.346138,0.114145,0.219300,0.563959,0.213155,0.271117
0.155114,0.341217,0.352732,0.099043,0.191048,0.557321,0.177717,0.239845
0.150104,0.337508,0.354210,0.097101,0.186821,0.555905,0.170874,0.233282
0.139352,0.332223,0.351380,0.094143,0.181275,0.551083,0.162861,0.228580
0.128329,0.318897,0.350078,0.091240,0.177326,0.548837,0.156409,0.227667
0.125134,0.313171,0.346961,0.090742,0.177162,0.552517,0.154423,0.226954
0.119803,0.304232,0.342997,0.089162,0.177297,0.559881,0.151137,0.224868
0.114071,0.289100,0.340062,0.083029,0.173922,0.552992,0.147562,0.219317
0.112797,0.286444,0.339590,0.080658,0.173683,0.548442,0.146849,0.218047
0.111361,0.282293,0.336995,0.077882,0.172517,0.542463,0.147790,0.214066
0.109169,0.272169,0.330429,0.075835,0.173086,0.537697,0.148835,0.204155
0.108379,0.270379,0.328728,0.075009,0.175712,0.534402,0.147526,0.200147
0.107126,0.266720,0.321064,0.073649,0.183518,0.533997,0.144779,0.197989
0.105727,0.264219,0.311652,0.070712,0.192747,0.528036,0.145489,0.199936
0.105262,0.263086,0.310416,0.069918,0.193209,0.527673,0.146316,0.202181
0.105374,0.260898,0.309335,0.068932,0.193441,0.524656,0.147203,0.204455
0.106701,0.256033,0.305223,0.067564,0.194098,0.522141,0.152309,0.209355
0.107467,0.252875,0.309360,0.067260,0.194374,0.520242,0.157170,0.211557
0.110166,0.245664,0.316886,0.069209,0.195870,0.517815,0.165733,0.218764
0.111572,0.243960,0.318786,0.069826,0.198663,0.522138,0.168222,0.221480
0.126817,0.241016,0.334193,0.074178,0.212886,0.528017,0.178914,0.237046
0.131440,0.242555,0.340905,0.074496,0.216411,0.529111,0.181863,0.245224
0.134988,0.245028,0.347034,0.074180,0.220675,0.529671,0.184350,0.253374
0.140613,0.248353,0.353948,0.073593,0.224243,0.521543,0.188719,0.267961
0.142768,0.249371,0.358636,0.073394,0.224955,0.519856,0.190850,0.273782
0.144756,0.249703,0.360974,0.073226,0.224897,0.521683,0.193887,0.278950
0.143242,0.248488,0.363812,0.073271,0.222691,0.535244,0.202808,0.289295
0.142166,0.249203,0.364723,0.073331,0.221388,0.537684,0.205389,0.290403
0.141121,0.249800,0.368340,0.072977,0.219605,0.539749,0.207534,0.291924
0.139828,0.252385,0.378414,0.071314,0.217719,0.539358,0.211086,0.294063
0.141456,0.257340,0.394459,0.069186,0.219936,0.545555,0.214249,0.295944
0.143980,0.261892,0.408050,0.067007,0.222594,0.550167,0.217751,0.293174
0.145664,0.264602,0.415683,0.065406,0.221172,0.547539,0.220806,0.289704
0.146419,0.265879,0.418252,0.064379,0.220619,0.547139,0.223963,0.288762
0.148693,0.261887,0.417937,0.062440,0.218994,0.544098,0.231751,0.291098
0.149437,0.260546,0.417435,0.063204,0.218147,0.539141,0.234529,0.292643
0.150073,0.259412,0.416584,0.063734,0.216458,0.534946,0.237549,0.294182
0.154606,0.265779,0.419034,0.066613,0.208901,0.527336,0.244112,0.292437
0.155737,0.270528,0.418600,0.067479,0.207796,0.524636,0.244907,0.291585
0.158175,0.276201,0.413372,0.069528,0.205088,0.513652,0.249770,0.291036
0.159462,0.276220,0.408735,0.070340,0.204699,0.510297,0.250447,0.291629
0.160338,0.275378,0.405976,0.071302,0.204369,0.507457,0.251020,0.291851
0.162116,0.273945,0.406114,0.074721,0.205079,0.515437,0.254960,0.291732
0.162029,0.272897,0.405790,0.075439,0.204939,0.520656,0.256766,0.291656
0.161632,0.273107,0.406062,0.075428,0.204821,0.522564,0.259970,0.291640
0.157369,0.269284,0.404727,0.075653,0.202439,0.528602,0.265090,0.284381
0.155893,0.267174,0.403177,0.075916,0.199831,0.528743,0.265174,0.283705
0.155506,0.265689,0.399765,0.076861,0.191745,0.524557,0.267039,0.280256
0.153152,0.259615,0.398505,0.079615,0.184969,0.522140,0.262973,0.272958
0.149179,0.255908,0.398677,0.082119,0.183532,0.521248,0.257646,0.259431
0.144874,0.263964,0.394080,0.082656,0.181965,0.515287,0.249984,0.250224
0.144213,0.266140,0.390906,0.082370,0.181500,0.512429,0.248155,0.248252
0.143287,0.269081,0.381686,0.081050,0.179247,0.504708,0.244193,0.243516
0.139414,0.270393,0.374545,0.079562,0.169397,0.492739,0.239274,0.235024
0.137655,0.268016,0.372234,0.078514,0.164389,0.490429,0.237263,0.233477
0.133134,0.266003,0.367160,0.077166,0.159733,0.487968,0.235702,0.231911
0.113796,0.249856,0.349749,0.074922,0.144164,0.471863,0.229965,0.214250
0.109110,0.245399,0.344849,0.074278,0.138268,0.466856,0.228157,0.207817
0.098601,0.233383,0.330405,0.073213,0.125352,0.446104,0.222350,0.190899
0.095950,0.230567,0.327635,0.073064,0.122334,0.435192,0.217810,0.186564
0.091912,0.225797,0.326948,0.072132,0.117291,0.417031,0.208353,0.178493
0.088258,0.216491,0.326888,0.072035,0.110620,0.398829,0.201348,0.171485
0.086343,0.213258,0.324043,0.072307,0.108830,0.394994,0.200262,0.169859
0.081256,0.201307,0.314080,0.072536,0.100164,0.379912,0.198152,0.166044
0.076354,0.192513,0.304217,0.073126,0.092192,0.372557,0.200959,0.163002
0.072645,0.187031,0.297646,0.073397,0.089670,0.368136,0.202508,0.160192
0.067683,0.181329,0.281494,0.073298,0.090187,0.358125,0.200688,0.152787
0.067036,0.180982,0.277913,0.072123,0.090608,0.356936,0.200098,0.151039
0.068112,0.180688,0.275507,0.070838,0.091381,0.357498,0.198692,0.149118
0.074148,0.176756,0.266468,0.066646,0.093351,0.355976,0.197079,0.143294
0.075694,0.170794,0.264787,0.065962,0.093617,0.356300,0.197152,0.139803
0.077651,0.165695,0.263363,0.065250,0.093842,0.356575,0.196456,0.136536
0.084182,0.153931,0.263694,0.062681,0.091047,0.351904,0.196334,0.129424
0.088763,0.148781,0.263444,0.060432,0.088684,0.350529,0.197757,0.124526
0.095692,0.141586,0.257626,0.056638,0.084259,0.337372,0.197218,0.124228
0.097472,0.139813,0.258707,0.056185,0.084522,0.329439,0.195118,0.125078
0.098998,0.137216,0.259280,0.056026,0.084744,0.322259,0.191664,0.125930
0.103325,0.134121,0.260464,0.055364,0.085092,0.308782,0.186968,0.127606
0.104996,0.132911,0.260082,0.055059,0.085740,0.306548,0.186330,0.127029
0.106497,0.130792,0.259593,0.055659,0.086051,0.304657,0.186092,0.125148
0.106744,0.128406,0.259107,0.057392,0.087241,0.303956,0.184957,0.122801
0.112496,0.127348,0.256530,0.059804,0.089350,0.299488,0.182983,0.124912
0.125100,0.126384,0.245777,0.059519,0.094110,0.292597,0.189814,0.145668
0.127260,0.125957,0.244048,0.059525,0.094782,0.290854,0.192368,0.149680
0.133098,0.133006,0.246751,0.060390,0.099358,0.287395,0.205694,0.167073
0.136698,0.139181,0.248013,0.060246,0.102252,0.286579,0.214114,0.177934
0.145605,0.144434,0.247950,0.059733,0.104326,0.282840,0.221371,0.187503
0.157982,0.161241,0.247518,0.059445,0.109450,0.284057,0.233152,0.204396
0.163576,0.167786,0.248819,0.059476,0.111008,0.285934,0.237548,0.210149
0.169213,0.172452,0.249920,0.059482,0.113261,0.287665,0.242410,0.215704
0.188812,0.187165,0.259213,0.060343,0.125172,0.313525,0.262641,0.237128
0.207304,0.197603,0.258194,0.060623,0.133414,0.339044,0.281793,0.255179
0.213736,0.200523,0.256429,0.060481,0.136032,0.345674,0.287603,0.261229
0.220787,0.204413,0.255659,0.060847,0.140457,0.354329,0.291006,0.266121
0.233157,0.212926,0.253420,0.061413,0.150890,0.375397,0.300009,0.273886
0.240632,0.216608,0.253488,0.061609,0.156806,0.385450,0.305538,0.278123
0.248969,0.220779,0.252908,0.062472,0.161814,0.394780,0.310096,0.283006
0.263844,0.231182,0.252325,0.063104,0.172699,0.399815,0.313898,0.299754
0.283297,0.239293,0.253680,0.063614,0.181275,0.408800,0.316101,0.318480
0.291189,0.242152,0.253658,0.063765,0.184842,0.412525,0.315652,0.328917
0.314489,0.255156,0.255461,0.065599,0.204124,0.431763,0.320901,0.355390
0.322569,0.259792,0.257063,0.066569,0.211055,0.438881,0.321551,0.363142
0.334816,0.269287,0.254966,0.068546,0.226696,0.452161,0.329255,0.381701
0.342761,0.272379,0.255366,0.070833,0.234657,0.456651,0.333372,0.391020
0.349766,0.274778,0.255603,0.072769,0.242316,0.459316,0.338462,0.400968
0.368835,0.285570,0.262105,0.079484,0.259962,0.472334,0.350781,0.429632
0.374536,0.289215,0.265892,0.081155,0.264646,0.481136,0.354295,0.439088
0.396739,0.303171,0.275685,0.087639,0.291912,0.508006,0.369808,0.478930
0.405308,0.310020,0.277703,0.092388,0.302631,0.522998,0.385337,0.494340
0.409027,0.312932,0.277964,0.097450,0.308385,0.529263,0.394172,0.500592
0.423734,0.318278,0.283355,0.122357,0.326904,0.547423,0.417215,0.515539
0.438297,0.325480,0.290214,0.135868,0.339029,0.557200,0.432745,0.526576
0.450056,0.336771,0.304133,0.143267,0.349164,0.563167,0.445923,0.535975
0.458038,0.343747,0.315583,0.150742,0.356789,0.570221,0.460071,0.538092
0.465578,0.354616,0.325761,0.158080,0.359669,0.575172,0.477863,0.539348
0.476353,0.366344,0.335342,0.164242,0.361967,0.587489,0.488768,0.541074
0.493925,0.369940,0.348006,0.173761,0.365421,0.596613,0.498078,0.544436
0.498630,0.368906,0.354103,0.178680,0.369834,0.598075,0.497831,0.544229
0.511501,0.365070,0.363045,0.188947,0.382686,0.602150,0.497540,0.545746
0.525309,0.357089,0.373139,0.215190,0.410943,0.619026,0.497563,0.557923
0.527104,0.352472,0.372196,0.222219,0.416904,0.623746,0.498513,0.560063
0.530682,0.336752,0.375747,0.238862,0.433364,0.635212,0.506991,0.569626
0.534428,0.337893,0.376161,0.243195,0.435428,0.640464,0.510146,0.574058
0.536716,0.338348,0.374841,0.246260,0.438541,0.641212,0.511496,0.579457
0.541844,0.339542,0.374610,0.259356,0.447241,0.636692,0.516415,0.590502
0.542280,0.339564,0.378226,0.266573,0.450914,0.638823,0.518130,0.595256
0.544360,0.340500,0.382668,0.275842,0.453588,0.637419,0.519513,0.600462
0.548325,0.342435,0.398964,0.307972,0.464096,0.636640,0.523489,0.610153
0.548730,0.341903,0.403063,0.316722,0.466399,0.635150,0.523629,0.613876
0.552090,0.340748,0.409404,0.332678,0.473345,0.633155,0.523570,0.623853
0.558827,0.340140,0.420747,0.349965,0.479893,0.630759,0.535896,0.626234
0.557482,0.343501,0.424257,0.354315,0.481326,0.630750,0.539931,0.627638
0.559504,0.348755,0.434264,0.363485,0.484243,0.633061,0.550081,0.628918
0.568673,0.350127,0.447598,0.381471,0.489307,0.625674,0.559375,0.626485
0.568565,0.348165,0.456232,0.395609,0.489030,0.622559,0.558208,0.620086
0.570970,0.343263,0.464253,0.410691,0.487031,0.616695,0.549629,0.613648
0.573356,0.341782,0.463333,0.414425,0.487282,0.613366,0.546768,0.613542
0.578309,0.343315,0.462245,0.422326,0.485724,0.606737,0.545018,0.608616
0.578786,0.349944,0.470205,0.430877,0.481598,0.602283,0.550390,0.607582
0.582983,0.351767,0.476007,0.433634,0.483482,0.602292,0.549940,0.607265
0.592672,0.354361,0.485155,0.435351,0.480731,0.604267,0.548962,0.606172
0.607761,0.356285,0.488143,0.423039,0.483844,0.609585,0.556837,0.616482
0.608450,0.354531,0.487630,0.421078,0.483162,0.607462,0.557964,0.620831
0.610439,0.353512,0.487455,0.420305,0.483039,0.605665,0.556628,0.623370
0.614997,0.350755,0.479940,0.419738,0.484852,0.606443,0.558827,0.628904
0.621131,0.349123,0.473430,0.421510,0.484766,0.603452,0.561480,0.630855
0.625353,0.348590,0.467756,0.421726,0.488033,0.602766,0.557694,0.629115
0.626335,0.350173,0.467306,0.421403,0.492130,0.599218,0.557774,0.628367
0.626892,0.352316,0.467642,0.421736,0.503685,0.596941,0.557912,0.630896
0.631813,0.357044,0.468023,0.419939,0.520314,0.598629,0.553204,0.627890
0.630080,0.361217,0.466163,0.417891,0.520148,0.600681,0.552915,0.625533
0.625910,0.368455,0.462247,0.415709,0.518229,0.600737,0.553920,0.621534
0.619365,0.377012,0.462250,0.409070,0.513045,0.593955,0.552652,0.611938
0.616880,0.383337,0.465378,0.405991,0.508145,0.588991,0.550825,0.604781
0.608041,0.416812,0.481403,0.390868,0.490677,0.567384,0.534255,0.583046
0.604358,0.423574,0.487481,0.387893,0.486720,0.561840,0.528849,0.579237
0.602255,0.430017,0.493079,0.385377,0.482084,0.557765,0.523892,0.573826
0.596373,0.443543,0.503134,0.374351,0.470634,0.552596,0.509901,0.557723
0.594425,0.446907,0.505371,0.367817,0.465512,0.550165,0.504525,0.551029
0.591653,0.449024,0.506247,0.359190,0.461467,0.548106,0.497240,0.544855
0.584531,0.452639,0.504540,0.338057,0.451239,0.538326,0.484204,0.539072
0.577989,0.457478,0.504969,0.320066,0.442655,0.529391,0.471431,0.539270
0.572303,0.460158,0.504482,0.313145,0.438976,0.526675,0.467238,0.537874
0.558041,0.460291,0.504577,0.302066,0.429088,0.519083,0.451703,0.537967
0.550287,0.458482,0.502646,0.297677,0.424881,0.518121,0.442722,0.539914
0.543932,0.453925,0.500186,0.293789,0.419267,0.516254,0.433786,0.542468
0.531182,0.443655,0.493539,0.286816,0.416365,0.506442,0.415757,0.540789
0.525139,0.439911,0.490399,0.283254,0.413034,0.498918,0.406504,0.539003
0.516905,0.435353,0.488161,0.280415,0.407015,0.494730,0.399537,0.538475
0.501886,0.431121,0.484510,0.271302,0.395731,0.488941,0.388066,0.534125
0.493823,0.431307,0.482507,0.266457,0.388223,0.483421,0.383289,0.531563
0.477104,0.429658,0.478287,0.251403,0.378491,0.477126,0.374244,0.526170
0.469256,0.429812,0.478479,0.244700,0.373560,0.475257,0.370971,0.520963
0.450209,0.432171,0.474126,0.231485,0.365262,0.471476,0.366047,0.508899
0.405764,0.430757,0.475538,0.212987,0.357266,0.460526,0.349902,0.482070
0.387008,0.423276,0.469986,0.208825,0.353662,0.458181,0.335147,0.466551
0.364632,0.418946,0.461584,0.202549,0.351956,0.452922,0.318381,0.454409
0.329529,0.417040,0.453605,0.190303,0.342673,0.451098,0.293846,0.434951
0.308553,0.423174,0.450339,0.181541,0.335756,0.449041,0.277755,0.420119
0.297399,0.426562,0.449632,0.176359,0.332323,0.449294,0.273700,0.414493
0.268771,0.426552,0.445990,0.161424,0.322271,0.446754,0.256987,0.400166
0.244986,0.414503,0.444734,0.146953,0.312094,0.443171,0.238942,0.391134
0.223033,0.396158,0.444872,0.136182,0.291340,0.434261,0.221296,0.392840
0.214712,0.392168,0.442356,0.132637,0.282898,0.434012,0.216572,0.393255
0.205834,0.387974,0.439001,0.128883,0.274908,0.434268,0.211971,0.393592
0.186855,0.375673,0.435348,0.118268,0.255271,0.426095,0.197216,0.393463
0.181547,0.372499,0.435888,0.114564,0.250545,0.423977,0.192146,0.391898
0.173005,0.364144,0.438074,0.108258,0.243678,0.420713,0.183159,0.388017
0.163344,0.347076,0.437824,0.099812,0.243513,0.427182,0.171930,0.382898
0.159208,0.339997,0.438581,0.097659,0.243456,0.427504,0.168747,0.380953
0.142285,0.301433,0.434224,0.092345,0.245493,0.440749,0.157682,0.374494
0.139079,0.297992,0.434413,0.092423,0.244903,0.441641,0.157317,0.374525
0.131840,0.293024,0.426626,0.093826,0.242097,0.446288,0.158461,0.384199
0.131362,0.293479,0.423643,0.094133,0.240231,0.450318,0.161660,0.388414
0.130821,0.294098,0.417909,0.094998,0.239463,0.454517,0.165610,0.389576
0.130680,0.293619,0.403696,0.095449,0.229204,0.456090,0.173393,0.387996
0.131247,0.295612,0.399787,0.094931,0.226427,0.457005,0.175489,0.388099
0.132622,0.299731,0.393172,0.093835,0.222809,0.462268,0.179797,0.384961
0.135726,0.302814,0.389138,0.093397,0.216019,0.465268,0.183994,0.380442
0.137556,0.303866,0.382099,0.092711,0.208553,0.468960,0.187870,0.377512
0.137629,0.301618,0.378273,0.091997,0.205296,0.470637,0.189089,0.378546
0.141910,0.295303,0.373078,0.089845,0.197378,0.475261,0.188569,0.385205
0.145771,0.293574,0.368955,0.089233,0.195130,0.477847,0.189679,0.392917
0.147437,0.290958,0.367627,0.089055,0.197594,0.483640,0.191897,0.396527
0.155979,0.282181,0.361322,0.089046,0.205786,0.503097,0.199436,0.406292
0.159010,0.279363,0.358102,0.089149,0.207355,0.507089,0.200985,0.409136
0.161849,0.278207,0.356510,0.087245,0.207867,0.513289,0.202285,0.412383
0.172279,0.283048,0.354102,0.080913,0.205406,0.518717,0.207736,0.420713
0.175479,0.283774,0.356802,0.079540,0.202833,0.520338,0.210097,0.424638
0.178264,0.286669,0.359635,0.078224,0.201685,0.520637,0.211899,0.429183
0.184182,0.291064,0.363818,0.076482,0.204627,0.519245,0.213835,0.437240
0.185871,0.287987,0.364833,0.075977,0.204506,0.522134,0.213592,0.437362
0.188976,0.280674,0.365602,0.075073,0.204531,0.529038,0.211767,0.436701
0.190113,0.278668,0.366346,0.074887,0.205780,0.531208,0.211915,0.436818
0.189115,0.277422,0.367615,0.074734,0.207687,0.534481,0.212162,0.436279
0.189426,0.281740,0.368225,0.074143,0.210951,0.543689,0.213090,0.434414
0.188952,0.282565,0.367973,0.074162,0.211504,0.546445,0.213520,0.433560
0.190133,0.285027,0.366656,0.074814,0.212368,0.550186,0.213952,0.429588
0.191973,0.288373,0.361880,0.076468,0.213240,0.547945,0.216395,0.422798
0.192036,0.289243,0.360888,0.076462,0.213567,0.549613,0.217295,0.422134
0.191037,0.284465,0.351772,0.073343,0.210107,0.558555,0.227008,0.420058
0.190725,0.282552,0.348125,0.073609,0.212209,0.565780,0.230808,0.420952
0.190685,0.281133,0.345303,0.073723,0.212208,0.571287,0.233966,0.422266
0.190075,0.278963,0.340539,0.074022,0.211630,0.578383,0.239631,0.424002
0.189594,0.280102,0.338335,0.074245,0.211978,0.581399,0.241343,0.423148
0.189186,0.280868,0.336476,0.074433,0.211677,0.582171,0.242871,0.422394
0.190140,0.280835,0.328670,0.074483,0.211131,0.578751,0.246010,0.420687
0.183708,0.273624,0.319357,0.073489,0.209032,0.564897,0.244428,0.409716
0.182085,0.272027,0.319398,0.072745,0.208439,0.557872,0.244142,0.405673
0.173031,0.267802,0.316715,0.070637,0.206653,0.536645,0.233843,0.386188
0.170419,0.265074,0.317010,0.069290,0.205816,0.532721,0.232369,0.381461
0.165041,0.260864,0.316130,0.066742,0.204795,0.527893,0.232156,0.369318
0.161251,0.257310,0.316325,0.065430,0.204398,0.525002,0.231895,0.361639
0.159389,0.254181,0.316489,0.064319,0.205350,0.520298,0.231161,0.354606
0.153717,0.246772,0.317154,0.060464,0.203980,0.511829,0.231900,0.339736
0.151350,0.243828,0.319350,0.058568,0.203613,0.505105,0.232095,0.332198
0.149208,0.242652,0.323966,0.057548,0.203692,0.499325,0.232009,0.327274
0.143147,0.238861,0.331282,0.057561,0.203713,0.489212,0.232046,0.318359
0.140266,0.237140,0.334841,0.057838,0.203093,0.484095,0.232114,0.312649
0.134249,0.232163,0.335079,0.057961,0.199234,0.470283,0.233436,0.302233
0.131785,0.230044,0.334326,0.058003,0.194400,0.460134,0.232179,0.298525
0.125846,0.228023,0.334487,0.057924,0.181166,0.445042,0.228497,0.292939
0.121924,0.227239,0.334291,0.057774,0.175497,0.436930,0.228066,0.291390
0.113508,0.226745,0.330438,0.057131,0.159978,0.416140,0.227918,0.285314
0.105963,0.222669,0.328080,0.056857,0.152348,0.403872,0.227095,0.279289
0.103286,0.220195,0.324174,0.056837,0.149374,0.397004,0.226002,0.274792
0.095687,0.209114,0.313485,0.059915,0.135138,0.372307,0.221960,0.264899
0.091660,0.209047,0.306444,0.061383,0.126944,0.360083,0.217835,0.261186
0.089757,0.208883,0.302864,0.062112,0.123770,0.352198,0.217002,0.259486
0.086782,0.207410,0.295281,0.062758,0.113721,0.336373,0.213310,0.255161
0.085478,0.206088,0.293690,0.063169,0.108488,0.327345,0.211819,0.254107
0.080634,0.195566,0.292780,0.064358,0.096756,0.300006,0.209833,0.250938
0.078096,0.192630,0.291476,0.064172,0.094148,0.292275,0.210048,0.247084
0.075718,0.189258,0.288792,0.063867,0.091940,0.286385,0.210849,0.242068
0.070346,0.182043,0.283834,0.062496,0.088611,0.277184,0.211439,0.230759
0.069311,0.181906,0.282544,0.062639,0.087467,0.271643,0.211602,0.227575
0.068437,0.181967,0.282116,0.062760,0.086358,0.267909,0.212313,0.225540
0.067573,0.186692,0.283860,0.061479,0.079716,0.243741,0.210762,0.219756
0.067493,0.190019,0.278109,0.060612,0.074706,0.224410,0.210207,0.219281
0.069641,0.187382,0.262286,0.061317,0.067973,0.208043,0.210968,0.228231
0.069852,0.186318,0.257525,0.061404,0.066632,0.204075,0.211066,0.230438
0.068647,0.184654,0.249474,0.060835,0.066191,0.197873,0.211605,0.234996
0.067549,0.181188,0.238101,0.061136,0.074730,0.195321,0.209931,0.241464
0.067784,0.177008,0.233597,0.061037,0.076529,0.196353,0.209400,0.242218
0.067590,0.158086,0.215500,0.059540,0.091344,0.215302,0.222553,0.244765
0.067515,0.155955,0.213522,0.059048,0.093343,0.215515,0.224224,0.246571
0.067401,0.152702,0.211176,0.058430,0.095570,0.216569,0.228555,0.250567
0.065835,0.148357,0.209466,0.059598,0.096294,0.215354,0.235302,0.254204
0.065074,0.148142,0.209071,0.060506,0.096699,0.214896,0.236373,0.254855
0.063609,0.147550,0.204420,0.062393,0.096269,0.214179,0.241207,0.261482
0.063078,0.154184,0.193402,0.062211,0.097059,0.222792,0.252000,0.273990
0.063157,0.156578,0.191483,0.062111,0.099011,0.229524,0.254527,0.279596
0.063291,0.162849,0.190212,0.062307,0.103482,0.240449,0.258150,0.288356
0.062822,0.167920,0.189428,0.062978,0.112897,0.248311,0.261258,0.293334
0.062600,0.168165,0.188222,0.064014,0.117601,0.250181,0.262329,0.294223
0.062575,0.167606,0.188854,0.065367,0.121522,0.251140,0.264780,0.296240
0.065837,0.163263,0.188197,0.067509,0.130828,0.250762,0.267075,0.304340
0.068232,0.165686,0.189731,0.068167,0.134984,0.250119,0.268690,0.307540
0.069800,0.170319,0.191795,0.068711,0.138442,0.252504,0.273119,0.310254
0.072593,0.181120,0.199756,0.067733,0.143861,0.256233,0.279275,0.311900
0.074633,0.186172,0.203030,0.066701,0.146707,0.259462,0.283432,0.312888
0.079122,0.190586,0.206929,0.064940,0.151328,0.261954,0.294629,0.320189
0.090436,0.196429,0.220400,0.066427,0.160197,0.272219,0.304659,0.334593
0.093783,0.198192,0.223767,0.067799,0.163978,0.275797,0.307103,0.339074
0.101547,0.200433,0.224949,0.073210,0.177289,0.284779,0.312196,0.351708
0.105879,0.203322,0.224520,0.076708,0.184538,0.293221,0.312254,0.364224
0.108205,0.207496,0.224023,0.078052,0.187049,0.297188,0.312118,0.372865
0.117915,0.219021,0.222621,0.080984,0.195126,0.300501,0.320444,0.403794
0.123408,0.222551,0.220807,0.082227,0.199022,0.300329,0.323167,0.412809
0.133370,0.226759,0.215259,0.084707,0.208713,0.300296,0.332482,0.427575
0.148680,0.229780,0.215279,0.087652,0.219746,0.301249,0.342373,0.442343
0.153079,0.229161,0.216421,0.089842,0.222939,0.304750,0.347192,0.444795
0.160187,0.227075,0.218276,0.092575,0.232111,0.317029,0.356368,0.449423
0.170333,0.224835,0.220096,0.095351,0.242183,0.325115,0.364047,0.460539
0.181971,0.228581,0.223100,0.099697,0.248139,0.334712,0.376885,0.473622
0.197264,0.233531,0.226876,0.102607,0.248387,0.344036,0.388972,0.486130
0.203577,0.235880,0.228814,0.103379,0.247929,0.345791,0.394784,0.491815
0.213362,0.238954,0.233982,0.105002,0.252389,0.345007,0.402773,0.500944
0.227389,0.242631,0.236883,0.111819,0.258416,0.343638,0.409975,0.511011
0.234637,0.244827,0.238573,0.113781,0.263833,0.344318,0.412384,0.512117
0.240864,0.246451,0.241584,0.117292,0.270071,0.346027,0.416140,0.513358
0.254943,0.248667,0.244991,0.128307,0.288076,0.354721,0.430109,0.513531
0.259527,0.252408,0.247953,0.132144,0.295003,0.361230,0.432316,0.514091
0.267354,0.264906,0.252371,0.137247,0.305665,0.372715,0.437271,0.521930
0.277071,0.275907,0.256802,0.140726,0.316229,0.383206,0.439922,0.525417
0.295800,0.279737,0.259985,0.147135,0.334142,0.393988,0.444769,0.524904
0.303166,0.280263,0.262508,0.149923,0.339057,0.393622,0.446386,0.523059
0.310771,0.279848,0.263706,0.152162,0.344374,0.393195,0.449003,0.522487
0.323294,0.277621,0.267703,0.157212,0.356182,0.395452,0.457117,0.522065
0.340449,0.275585,0.275510,0.162345,0.374716,0.405952,0.465891,0.530608
0.356095,0.274652,0.282419,0.166903,0.384244,0.416177,0.471444,0.530465
0.362345,0.275003,0.286343,0.170544,0.389000,0.420620,0.475406,0.530125
0.378907,0.262748,0.292355,0.180319,0.402285,0.434317,0.482230,0.531823
0.394671,0.254305,0.293786,0.188773,0.410341,0.440134,0.485855,0.533278
0.416897,0.248319,0.300926,0.207158,0.429066,0.447157,0.489604,0.527011
0.421690,0.247235,0.300970,0.213447,0.436575,0.448573,0.492780,0.525473
0.425799,0.246199,0.302376,0.220556,0.445172,0.450032,0.498263,0.524271
0.439278,0.246843,0.316728,0.245963,0.460701,0.460649,0.520799,0.530098
0.465934,0.250829,0.339132,0.267536,0.473121,0.472220,0.548017,0.538509
0.489720,0.240110,0.358128,0.285000,0.485972,0.493853,0.565936,0.535225
0.493667,0.236446,0.363657,0.290776,0.490276,0.503956,0.566418,0.530555
0.496055,0.231050,0.369050,0.295616,0.492948,0.515062,0.567045,0.525900
0.501236,0.223205,0.381422,0.311464,0.492878,0.546588,0.565018,0.518453
0.505759,0.222721,0.384608,0.318929,0.494076,0.555446,0.564753,0.520649
0.511550,0.222311,0.386610,0.325239,0.496285,0.562865,0.564969,0.522310
0.529958,0.224029,0.401628,0.343582,0.500200,0.568661,0.566547,0.525016
0.532018,0.224582,0.406021,0.348627,0.499082,0.568685,0.567643,0.523810
0.534089,0.225458,0.413215,0.355500,0.497560,0.568841,0.571240,0.520539
0.536427,0.222343,0.422174,0.366255,0.496994,0.567382,0.573966,0.514155
0.534724,0.221657,0.425692,0.370334,0.496242,0.567597,0.577878,0.512118
0.532711,0.219306,0.427680,0.374552,0.496175,0.565620,0.579275,0.509730
0.536673,0.218318,0.432082,0.389708,0.507021,0.564814,0.582840,0.499621
0.537581,0.220348,0.435458,0.392258,0.507764,0.561969,0.582114,0.495766
0.538556,0.222779,0.441907,0.397635,0.507988,0.560673,0.583730,0.493364
0.536707,0.224448,0.447526,0.402830,0.505877,0.561290,0.585374,0.490943
0.534003,0.225438,0.451225,0.408214,0.504535,0.560666,0.586368,0.489023
0.530527,0.228518,0.453315,0.416489,0.503208,0.554945,0.582424,0.483333
0.529109,0.233094,0.456846,0.420709,0.500739,0.547921,0.574916,0.479805
0.533663,0.226320,0.466461,0.423992,0.496118,0.535612,0.568350,0.478293
0.534173,0.216061,0.482640,0.428276,0.486735,0.527243,0.569471,0.468809
0.533335,0.217711,0.489624,0.428975,0.482218,0.523596,0.567949,0.466088
0.531002,0.222092,0.495536,0.428974,0.478186,0.520347,0.566937,0.463029
0.527958,0.226729,0.499117,0.428268,0.474904,0.520034,0.565358,0.459813
0.520748,0.234564,0.505715,0.426762,0.465962,0.520936,0.559653,0.451657
0.518442,0.237712,0.509717,0.426135,0.459965,0.520597,0.557203,0.449514
0.514561,0.245881,0.521109,0.424591,0.439630,0.506488,0.553333,0.442190
0.509393,0.249723,0.525033,0.422360,0.432093,0.500681,0.550669,0.440392
0.503054,0.256724,0.526142,0.420143,0.425076,0.497830,0.547952,0.439260
0.492232,0.266015,0.529869,0.414061,0.411797,0.494432,0.540574,0.436421
0.483517,0.273918,0.535144,0.408624,0.398485,0.491371,0.536732,0.437031
0.467652,0.283399,0.544873,0.394535,0.379738,0.490554,0.527536,0.444135
0.461234,0.283052,0.544968,0.389378,0.370989,0.490032,0.523076,0.445272
0.456101,0.286618,0.546550,0.383606,0.365795,0.489590,0.516396,0.446061
0.446489,0.302216,0.547135,0.358908,0.344762,0.488573,0.491634,0.442839
0.443939,0.305695,0.543978,0.348563,0.338922,0.490601,0.482986,0.439354
0.439438,0.309397,0.540533,0.340351,0.333847,0.494560,0.473243,0.435203
0.416174,0.314843,0.523165,0.316315,0.319093,0.494149,0.447255,0.420057
0.409175,0.316478,0.517962,0.310014,0.315105,0.491973,0.439371,0.413505
0.393224,0.321004,0.509513,0.298044,0.301758,0.484991,0.427165,0.402855
0.386023,0.323565,0.506615,0.291596,0.295881,0.478598,0.421918,0.399484
0.373685,0.329543,0.503645,0.279906,0.284959,0.463991,0.410763,0.394150
0.361398,0.330478,0.502229,0.267181,0.276474,0.447828,0.400049,0.385479
0.343455,0.332560,0.507393,0.252532,0.268211,0.442475,0.389480,0.372421
0.323187,0.332723,0.506766,0.238504,0.258200,0.440121,0.375451,0.363961
0.308268,0.332697,0.504249,0.228380,0.250307,0.439039,0.363495,0.353861
0.301879,0.332368,0.501427,0.222038,0.247714,0.438083,0.356807,0.350272
0.295926,0.334525,0.499047,0.215905,0.245686,0.438492,0.349656,0.346647
0.282885,0.338557,0.495214,0.205234,0.239762,0.439561,0.332501,0.335399
0.270807,0.344209,0.496695,0.193797,0.230585,0.446740,0.317480,0.325105
0.256703,0.343521,0.496692,0.182272,0.215304,0.449778,0.305149,0.316958
0.245133,0.340972,0.493131,0.169477,0.204289,0.456338,0.294178,0.312585
0.240562,0.339214,0.493246,0.162391,0.200186,0.460102,0.288998,0.313024
0.233609,0.334533,0.497786,0.147608,0.191646,0.471486,0.278022,0.317992
0.227491,0.333025,0.502469,0.134560,0.182682,0.483813,0.270634,0.322164
0.218010,0.333159,0.501043,0.124350,0.176104,0.494736,0.265705,0.321331
0.193441,0.349244,0.502479,0.107487,0.170219,0.502010,0.248302,0.315537
0.185915,0.347209,0.500495,0.103471,0.170227,0.505694,0.244955,0.316948
0.179954,0.344769,0.501539,0.100829,0.166066,0.500668,0.240351,0.317912
0.170147,0.342708,0.496026,0.096653,0.159237,0.497423,0.238147,0.316707
0.162699,0.343260,0.489060,0.094452,0.155988,0.496961,0.234106,0.313687
0.159969,0.342105,0.485818,0.093792,0.154764,0.497053,0.232796,0.312310
0.158008,0.337379,0.483151,0.093239,0.155637,0.495066,0.230151,0.309380
0.154159,0.332998,0.479798,0.091882,0.158932,0.486636,0.226169,0.304859
0.149711,0.331355,0.472435,0.091082,0.163609,0.478608,0.220374,0.298468
0.136321,0.330423,0.469218,0.090738,0.176404,0.471856,0.217328,0.289500
0.128442,0.328070,0.473628,0.090310,0.182716,0.468590,0.222408,0.286870
0.116391,0.318601,0.477408,0.091326,0.189224,0.465044,0.232763,0.286933
0.113276,0.317393,0.478842,0.091223,0.190275,0.461217,0.234389,0.287674
0.108261,0.314469,0.479882,0.090215,0.194874,0.452285,0.236789,0.289238
0.100967,0.309879,0.482186,0.089618,0.207826,0.452731,0.235199,0.291080
0.099510,0.311365,0.482172,0.089241,0.211989,0.453097,0.235494,0.292586
0.097274,0.311986,0.479973,0.088653,0.218965,0.457724,0.238715,0.297420
0.094651,0.314474,0.475340,0.087824,0.232863,0.477154,0.256144,0.304077
0.093457,0.312467,0.465679,0.086658,0.237645,0.481744,0.265531,0.304931
0.090627,0.316179,0.454159,0.082537,0.240341,0.483471,0.275816,0.301212
0.089910,0.319726,0.452836,0.080165,0.239767,0.484294,0.278769,0.299397
0.089072,0.324612,0.451812,0.077914,0.240256,0.488384,0.280406,0.298507
0.087870,0.332425,0.456997,0.074703,0.240442,0.494266,0.288016,0.297358
0.088162,0.333985,0.455593,0.075846,0.243507,0.498011,0.290811,0.297832
0.088408,0.335305,0.457013,0.076769,0.246317,0.497934,0.293124,0.297999
0.088749,0.337069,0.457663,0.078071,0.248478,0.495764,0.295667,0.297280
0.089466,0.339326,0.457794,0.079959,0.252893,0.496022,0.301686,0.296438
0.089549,0.341914,0.453154,0.081060,0.255111,0.491560,0.301603,0.292239
0.086927,0.345240,0.445225,0.081488,0.251736,0.486027,0.301908,0.285494
0.084898,0.345491,0.438254,0.081693,0.247356,0.483278,0.300939,0.279725
0.084645,0.344297,0.433725,0.081372,0.243255,0.485879,0.304167,0.273868
0.083714,0.339101,0.422867,0.081097,0.242395,0.492822,0.308743,0.267229
0.083181,0.334104,0.413996,0.081252,0.241628,0.496249,0.310815,0.263481
0.082536,0.330438,0.406486,0.081418,0.240716,0.500778,0.311472,0.260224
0.082649,0.327767,0.388052,0.079925,0.239734,0.517228,0.309064,0.258446
0.082484,0.326695,0.382899,0.079604,0.239792,0.522451,0.309829,0.258779
0.082351,0.326424,0.379265,0.079019,0.239840,0.526872,0.310164,0.259143
0.082151,0.326332,0.368611,0.077936,0.240358,0.535053,0.303664,0.256916
0.082192,0.327499,0.365075,0.077795,0.240501,0.538195,0.302230,0.255269
0.081521,0.330153,0.357444,0.077491,0.241601,0.546922,0.300203,0.252703
0.080239,0.332507,0.348356,0.077144,0.237899,0.557535,0.299259,0.251627
0.079540,0.331684,0.341176,0.076937,0.235315,0.564744,0.302585,0.254766
0.080458,0.329129,0.332167,0.076556,0.229342,0.577971,0.309396,0.262325
0.080757,0.325129,0.320471,0.075980,0.220456,0.591523,0.312498,0.266656
0.080631,0.321804,0.314553,0.076336,0.215422,0.594289,0.313290,0.267089
0.080616,0.316523,0.300103,0.074353,0.201562,0.597576,0.306215,0.266440
0.080597,0.313024,0.293814,0.072988,0.197956,0.597561,0.302318,0.264954
