0.000000,0.026316,0.166316,0.065263,0.164211
0.000000,0.026316,0.166316,0.065263,0.164211
0.000000,0.026316,0.166316,0.066316,0.165263
0.000000,0.026316,0.166316,0.066316,0.165263
0.000000,0.026316,0.166316,0.065263,0.165263
0.000000,0.026316,0.166316,0.065263,0.164211
0.000000,0.026316,0.166316,0.065263,0.164211
0.000000,0.026316,0.165263,0.065263,0.165263
0.000000,0.026316,0.165263,0.065263,0.165263
0.000000,0.026316,0.165263,0.065263,0.165263
0.000000,0.026316,0.165263,0.065263,0.165263
0.000000,0.026316,0.165263,0.065263,0.165263
0.000000,0.026316,0.165263,0.065263,0.165263
0.000000,0.026316,0.165263,0.065263,0.165263
0.000000,0.026316,0.165263,0.065263,0.165263
0.000000,0.026316,0.165263,0.065263,0.165263
0.000000,0.026316,0.165263,0.065263,0.165263
0.000000,0.026316,0.165263,0.065263,0.164211
0.000000,0.026316,0.165263,0.065263,0.164211
0.000000,0.026316,0.165263,0.065263,0.165263
0.000000,0.026316,0.165263,0.065263,0.165263
0.000000,0.026316,0.165263,0.065263,0.165263
0.000000,0.026316,0.165263,0.065263,0.165263
0.000000,0.026316,0.165263,0.065263,0.164211
0.000000,0.026316,0.165263,0.065263,0.164211
0.000000,0.026316,0.165263,0.065263,0.164211
0.000000,0.026316,0.165263,0.065263,0.164211
0.000000,0.026316,0.164211,0.065263,0.164211
0.000000,0.026316,0.164211,0.065263,0.164211
0.000000,0.026316,0.164211,0.065263,0.164211
0.000000,0.026316,0.164211,0.065263,0.164211
0.000000,0.026316,0.164211,0.065263,0.164211
0.000000,0.026316,0.164211,0.065263,0.164211
0.000000,0.026316,0.164211,0.065263,0.164211
0.000000,0.026316,0.164211,0.065263,0.164211
0.000000,0.026316,0.164211,0.065263,0.164211
0.000000,0.026316,0.164211,0.065263,0.164211
0.000000,0.026316,0.164211,0.065263,0.164211
0.000000,0.026316,0.164211,0.065263,0.164211
0.000000,0.026316,0.164211,0.065263,0.164211
0.000000,0.026316,0.164211,0.065263,0.164211
0.000000,0.026316,0.164211,0.065263,0.164211
0.000000,0.026316,0.164211,0.065263,0.164211
0.000000,0.026316,0.165263,0.065263,0.164211
0.000000,0.026316,0.165263,0.065263,0.164211
0.000000,0.028421,0.174737,0.068421,0.172632
0.000000,0.028421,0.174737,0.068421,0.172632
0.000000,0.032632,0.203158,0.086316,0.202105
0.000000,0.032632,0.203158,0.086316,0.202105
0.000000,0.037895,0.249474,0.121053,0.255789
0.000000,0.037895,0.249474,0.121053,0.255789
0.000000,0.047368,0.327368,0.189474,0.351579
0.000000,0.047368,0.327368,0.189474,0.351579
0.000000,0.067368,0.457895,0.296842,0.486316
0.000000,0.067368,0.457895,0.296842,0.486316
0.000000,0.096842,0.589474,0.409474,0.588421
0.000000,0.096842,0.589474,0.409474,0.588421
0.004211,0.130526,0.672632,0.503158,0.658947
0.004211,0.130526,0.672632,0.503158,0.658947
0.018947,0.182105,0.734737,0.586316,0.720000
0.034737,0.270526,0.797895,0.676842,0.777895
0.034737,0.270526,0.797895,0.676842,0.777895
0.053684,0.381053,0.841053,0.752632,0.825263
0.064211,0.443158,0.860000,0.782105,0.846316
0.064211,0.443158,0.860000,0.782105,0.846316
0.091579,0.581053,0.894737,0.833684,0.883158
0.091579,0.581053,0.894737,0.833684,0.883158
0.128421,0.707368,0.922105,0.870526,0.913684
0.128421,0.707368,0.922105,0.870526,0.913684
0.181053,0.785263,0.941053,0.894737,0.932632
0.242105,0.843158,0.954737,0.913684,0.947368
0.242105,0.843158,0.954737,0.913684,0.947368
0.305263,0.889474,0.969474,0.933684,0.961053
0.305263,0.889474,0.969474,0.933684,0.961053
0.392632,0.923158,0.981053,0.949474,0.968421
0.392632,0.923158,0.981053,0.949474,0.968421
0.509474,0.947368,0.991579,0.961053,0.975789
0.509474,0.947368,0.991579,0.961053,0.975789
0.622105,0.964211,0.997895,0.970526,0.980000
0.702105,0.973684,1.000000,0.971579,0.981053
0.702105,0.973684,1.000000,0.971579,0.981053
0.783158,0.980000,1.000000,0.974737,0.982105
0.783158,0.980000,1.000000,0.974737,0.982105
0.846316,0.980000,1.000000,0.972632,0.982105
0.846316,0.980000,1.000000,0.972632,0.982105
0.896842,0.981053,1.000000,0.973684,0.984211
0.896842,0.981053,1.000000,0.973684,0.984211
0.928421,0.980000,1.000000,0.970526,0.984211
0.928421,0.980000,1.000000,0.970526,0.984211
0.952632,0.980000,1.000000,0.969474,0.982105
0.952632,0.980000,1.000000,0.969474,0.982105
0.970526,0.980000,1.000000,0.967368,0.980000
0.970526,0.980000,1.000000,0.967368,0.980000
0.981053,0.982105,0.997895,0.965263,0.980000
0.981053,0.982105,0.997895,0.965263,0.980000
0.990526,0.983158,0.995789,0.961053,0.980000
0.995789,0.981053,0.995789,0.961053,0.981053
1.000000,0.983158,0.995789,0.957895,0.980000
1.000000,0.983158,0.995789,0.957895,0.980000
1.000000,0.983158,0.994737,0.954737,0.981053
1.000000,0.983158,0.994737,0.954737,0.981053
1.000000,0.982105,0.994737,0.954737,0.980000
1.000000,0.982105,0.994737,0.954737,0.980000
1.000000,0.981053,0.993684,0.952632,0.981053
1.000000,0.981053,0.993684,0.952632,0.981053
1.000000,0.981053,0.993684,0.950526,0.980000
1.000000,0.981053,0.993684,0.950526,0.980000
1.000000,0.981053,0.992632,0.949474,0.980000
1.000000,0.981053,0.992632,0.949474,0.980000
1.000000,0.980000,0.992632,0.947368,0.980000
1.000000,0.980000,0.992632,0.947368,0.980000
1.000000,0.980000,0.992632,0.945263,0.978947
1.000000,0.980000,0.992632,0.945263,0.978947
1.000000,0.975789,0.991579,0.944210,0.978947
1.000000,0.975789,0.991579,0.944210,0.978947
1.000000,0.975789,0.991579,0.943158,0.978947
1.000000,0.975789,0.989474,0.942105,0.976842
1.000000,0.975789,0.989474,0.942105,0.976842
1.000000,0.973684,0.989474,0.941053,0.975789
1.000000,0.973684,0.989474,0.941053,0.975789
1.000000,0.972632,0.988421,0.938947,0.974737
1.000000,0.972632,0.988421,0.938947,0.974737
1.000000,0.971579,0.987368,0.940000,0.972632
1.000000,0.971579,0.987368,0.940000,0.972632
1.000000,0.970526,0.986316,0.938947,0.971579
1.000000,0.970526,0.986316,0.938947,0.971579
1.000000,0.968421,0.985263,0.936842,0.969474
1.000000,0.968421,0.985263,0.936842,0.969474
0.997895,0.967368,0.984211,0.934737,0.967368
0.997895,0.967368,0.984211,0.934737,0.967368
0.992632,0.967368,0.983158,0.931579,0.963158
0.992632,0.967368,0.983158,0.931579,0.963158
0.982105,0.965263,0.982105,0.928421,0.961053
0.966316,0.961053,0.978947,0.924211,0.956842
0.966316,0.961053,0.978947,0.924211,0.956842
0.931579,0.955790,0.975789,0.918947,0.949474
0.853684,0.949474,0.972632,0.910526,0.936842
0.853684,0.949474,0.972632,0.910526,0.936842
0.716842,0.940000,0.968421,0.896842,0.917895
0.716842,0.940000,0.968421,0.896842,0.917895
0.506316,0.923158,0.960000,0.876842,0.890526
0.506316,0.923158,0.960000,0.876842,0.890526
0.337895,0.892632,0.944210,0.849474,0.844211
0.337895,0.892632,0.944210,0.849474,0.844211
0.242105,0.849474,0.922105,0.811579,0.780000
0.242105,0.849474,0.922105,0.811579,0.780000
0.193684,0.756842,0.886316,0.756842,0.705263
0.193684,0.756842,0.886316,0.756842,0.705263
0.169474,0.602105,0.832632,0.681053,0.630526
0.169474,0.602105,0.832632,0.681053,0.630526
0.154737,0.474737,0.746316,0.570526,0.573684
0.154737,0.474737,0.746316,0.570526,0.573684
0.142105,0.385263,0.635790,0.462105,0.518947
0.142105,0.385263,0.635790,0.462105,0.518947
0.131579,0.325263,0.535789,0.385263,0.468421
0.122105,0.280000,0.444211,0.322105,0.423158
0.122105,0.280000,0.444211,0.322105,0.423158
0.114737,0.244211,0.373684,0.271579,0.382105
0.114737,0.244211,0.373684,0.271579,0.382105
0.108421,0.216842,0.315789,0.233684,0.346316
0.108421,0.216842,0.315789,0.233684,0.346316
0.101053,0.193684,0.267368,0.201053,0.312632
0.101053,0.193684,0.267368,0.201053,0.312632
0.097895,0.174737,0.228421,0.174737,0.281053
0.086316,0.147368,0.181053,0.138947,0.231579
0.082105,0.135789,0.165263,0.128421,0.212632
0.082105,0.135789,0.165263,0.128421,0.212632
0.078947,0.126316,0.151579,0.120000,0.196842
0.078947,0.126316,0.151579,0.120000,0.196842
0.073684,0.117895,0.140000,0.113684,0.182105
0.068421,0.110526,0.130526,0.108421,0.167368
0.068421,0.110526,0.130526,0.108421,0.167368
0.064211,0.103158,0.122105,0.104211,0.154737
0.064211,0.103158,0.122105,0.104211,0.154737
0.058947,0.096842,0.112632,0.100000,0.143158
0.058947,0.096842,0.112632,0.100000,0.143158
0.054737,0.091579,0.105263,0.095789,0.133684
0.054737,0.091579,0.105263,0.095789,0.133684
0.051579,0.085263,0.098947,0.092632,0.125263
0.051579,0.085263,0.098947,0.092632,0.125263
0.048421,0.082105,0.092632,0.088421,0.117895
0.048421,0.082105,0.092632,0.088421,0.117895
0.045263,0.078947,0.089474,0.085263,0.112632
0.045263,0.078947,0.089474,0.085263,0.112632
0.043158,0.076842,0.086316,0.083158,0.109474
0.043158,0.076842,0.086316,0.083158,0.109474
0.042105,0.074737,0.084211,0.081053,0.106316
0.042105,0.074737,0.084211,0.081053,0.106316
0.040000,0.073684,0.083158,0.078947,0.105263
0.038947,0.072632,0.081053,0.077895,0.103158
0.038947,0.072632,0.081053,0.077895,0.103158
0.037895,0.070526,0.080000,0.076842,0.102105
0.037895,0.070526,0.080000,0.076842,0.102105
0.035789,0.070526,0.080000,0.075789,0.101053
0.035789,0.070526,0.080000,0.075789,0.101053
0.035789,0.070526,0.078947,0.074737,0.100000
0.035789,0.070526,0.078947,0.074737,0.100000
0.034737,0.069474,0.078947,0.073684,0.100000
0.033684,0.069474,0.078947,0.073684,0.100000
0.033684,0.069474,0.078947,0.073684,0.100000
0.033684,0.069474,0.078947,0.072632,0.101053
0.033684,0.068421,0.078947,0.072632,0.102105
0.033684,0.068421,0.078947,0.072632,0.102105
0.032632,0.068421,0.080000,0.071579,0.102105
0.032632,0.068421,0.080000,0.071579,0.102105
0.031579,0.068421,0.080000,0.071579,0.103158
0.031579,0.068421,0.080000,0.071579,0.103158
0.031579,0.067368,0.083158,0.071579,0.105263
0.032632,0.068421,0.088421,0.070526,0.108421
0.032632,0.068421,0.088421,0.070526,0.108421
0.032632,0.068421,0.096842,0.070526,0.110526
0.032632,0.068421,0.096842,0.070526,0.110526
0.032632,0.068421,0.108421,0.070526,0.112632
0.032632,0.068421,0.108421,0.070526,0.112632
0.033684,0.069474,0.125263,0.072632,0.116842
0.033684,0.069474,0.125263,0.072632,0.116842
0.034737,0.070526,0.169474,0.081053,0.129474
0.034737,0.070526,0.169474,0.081053,0.129474
0.035789,0.072632,0.234737,0.112632,0.153684
0.035789,0.072632,0.234737,0.112632,0.153684
0.036842,0.076842,0.291579,0.162105,0.187368
0.036842,0.076842,0.291579,0.162105,0.187368
0.038947,0.082105,0.343158,0.218947,0.224211
0.038947,0.082105,0.343158,0.218947,0.224211
0.042105,0.094737,0.422105,0.304211,0.274737
0.042105,0.094737,0.422105,0.304211,0.274737
0.046316,0.117895,0.522105,0.416842,0.335790
0.053684,0.154737,0.615789,0.541053,0.406316
0.053684,0.154737,0.615789,0.541053,0.406316
0.057895,0.175789,0.650526,0.593684,0.447368
0.057895,0.175789,0.650526,0.593684,0.447368
0.071579,0.220000,0.712632,0.685263,0.532632
0.071579,0.220000,0.712632,0.685263,0.532632
0.092632,0.294737,0.772632,0.756842,0.617895
0.092632,0.294737,0.772632,0.756842,0.617895
0.170526,0.573684,0.874737,0.869474,0.804211
0.170526,0.573684,0.874737,0.869474,0.804211
0.227368,0.680000,0.898947,0.902105,0.870526
0.227368,0.680000,0.898947,0.902105,0.870526
0.308421,0.755790,0.918947,0.924211,0.907368
0.308421,0.755790,0.918947,0.924211,0.907368
0.402105,0.817895,0.936842,0.943158,0.934737
0.402105,0.817895,0.936842,0.943158,0.934737
0.508421,0.863158,0.952632,0.956842,0.953684
0.592632,0.896842,0.963158,0.966316,0.965263
0.592632,0.896842,0.963158,0.966316,0.965263
0.669474,0.921053,0.972632,0.973684,0.974737
0.669474,0.921053,0.972632,0.973684,0.974737
0.731579,0.938947,0.980000,0.980000,0.981053
0.731579,0.938947,0.980000,0.980000,0.981053
0.777895,0.952632,0.985263,0.986316,0.986316
0.777895,0.952632,0.985263,0.986316,0.986316
0.818947,0.964211,0.992632,0.989474,0.990526
0.851579,0.971579,0.996842,0.993684,0.991579
0.851579,0.971579,0.996842,0.993684,0.991579
0.886316,0.978947,1.000000,0.995789,0.994737
0.886316,0.978947,1.000000,0.995789,0.994737
0.917895,0.982105,1.000000,0.997895,0.993684
0.917895,0.982105,1.000000,0.997895,0.993684
0.942105,0.981053,1.000000,0.996842,0.992632
0.942105,0.981053,1.000000,0.996842,0.992632
0.960000,0.981053,1.000000,0.996842,0.990526
0.971579,0.978947,1.000000,0.995789,0.990526
0.971579,0.978947,1.000000,0.995789,0.990526
0.983158,0.980000,1.000000,0.993684,0.990526
0.983158,0.980000,1.000000,0.993684,0.990526
0.990526,0.978947,1.000000,0.992632,0.989474
0.990526,0.978947,1.000000,0.992632,0.989474
0.995789,0.977895,1.000000,0.989474,0.989474
0.995789,0.977895,1.000000,0.989474,0.989474
0.998947,0.980000,1.000000,0.987368,0.989474
1.000000,0.978947,1.000000,0.986316,0.990526
1.000000,0.981053,0.998947,0.984211,0.990526
1.000000,0.981053,0.998947,0.984211,0.990526
1.000000,0.981053,0.996842,0.983158,0.991579
1.000000,0.981053,0.996842,0.983158,0.991579
1.000000,0.982105,0.995789,0.980000,0.992632
1.000000,0.982105,0.995789,0.980000,0.992632
1.000000,0.982105,0.992632,0.976842,0.994737
1.000000,0.982105,0.992632,0.976842,0.994737
1.000000,0.981053,0.991579,0.975789,0.995789
1.000000,0.980000,0.988421,0.973684,0.996842
1.000000,0.980000,0.988421,0.973684,0.996842
1.000000,0.978947,0.986316,0.969474,0.997895
1.000000,0.978947,0.986316,0.969474,0.997895
1.000000,0.978947,0.983158,0.966316,0.998947
1.000000,0.978947,0.983158,0.966316,0.998947
1.000000,0.976842,0.982105,0.963158,0.997895
1.000000,0.976842,0.982105,0.963158,0.997895
1.000000,0.972632,0.980000,0.961053,0.997895
1.000000,0.971579,0.978947,0.960000,0.996842
1.000000,0.971579,0.978947,0.960000,0.996842
1.000000,0.970526,0.976842,0.957895,0.995789
1.000000,0.970526,0.976842,0.957895,0.995789
1.000000,0.969474,0.975789,0.956842,0.995789
1.000000,0.969474,0.975789,0.956842,0.995789
1.000000,0.969474,0.973684,0.955790,0.993684
1.000000,0.969474,0.973684,0.955790,0.993684
1.000000,0.967368,0.973684,0.954737,0.992632
1.000000,0.967368,0.973684,0.954737,0.992632
1.000000,0.966316,0.971579,0.953684,0.991579
1.000000,0.966316,0.971579,0.953684,0.991579
1.000000,0.967368,0.971579,0.953684,0.989474
1.000000,0.967368,0.971579,0.953684,0.989474
0.998947,0.966316,0.970526,0.952632,0.988421
0.998947,0.965263,0.969474,0.950526,0.986316
0.998947,0.965263,0.969474,0.950526,0.986316
0.995789,0.964211,0.969474,0.950526,0.984211
0.989474,0.963158,0.969474,0.949474,0.981053
0.989474,0.963158,0.969474,0.949474,0.981053
0.987368,0.964211,0.969474,0.948421,0.977895
0.987368,0.964211,0.969474,0.948421,0.977895
0.983158,0.962105,0.968421,0.947368,0.975789
0.983158,0.962105,0.968421,0.947368,0.975789
0.976842,0.962105,0.967368,0.944210,0.972632
0.976842,0.962105,0.967368,0.944210,0.972632
0.962105,0.960000,0.967368,0.942105,0.969474
0.935789,0.955790,0.966316,0.942105,0.965263
0.935789,0.955790,0.966316,0.942105,0.965263
0.887368,0.952632,0.963158,0.937895,0.958947
0.887368,0.952632,0.963158,0.937895,0.958947
0.813684,0.948421,0.960000,0.932632,0.947368
0.813684,0.948421,0.960000,0.932632,0.947368
0.706316,0.936842,0.953684,0.922105,0.930526
0.706316,0.936842,0.953684,0.922105,0.930526
0.546316,0.920000,0.940000,0.908421,0.898947
0.392632,0.894737,0.922105,0.888421,0.852632
0.392632,0.894737,0.922105,0.888421,0.852632
0.295789,0.860000,0.896842,0.861053,0.800000
0.295789,0.860000,0.896842,0.861053,0.800000
0.240000,0.790526,0.860000,0.821053,0.742105
0.240000,0.790526,0.860000,0.821053,0.742105
0.206316,0.685263,0.804211,0.758947,0.676842
0.206316,0.685263,0.804211,0.758947,0.676842
0.187368,0.553684,0.720000,0.676842,0.618947
0.187368,0.553684,0.720000,0.676842,0.618947
0.169474,0.456842,0.626316,0.581053,0.561053
0.169474,0.456842,0.626316,0.581053,0.561053
0.155789,0.384211,0.528421,0.476842,0.498947
0.155789,0.384211,0.528421,0.476842,0.498947
0.144211,0.327368,0.438947,0.382105,0.434737
0.134737,0.283158,0.367368,0.314737,0.380000
0.134737,0.283158,0.367368,0.314737,0.380000
0.126316,0.247368,0.309474,0.267368,0.335790
0.126316,0.247368,0.309474,0.267368,0.335790
0.118947,0.220000,0.263158,0.230526,0.301053
0.111579,0.195789,0.228421,0.201053,0.270526
0.111579,0.195789,0.228421,0.201053,0.270526
0.105263,0.177895,0.204211,0.178947,0.245263
0.105263,0.177895,0.204211,0.178947,0.245263
0.100000,0.163158,0.186316,0.162105,0.225263
0.100000,0.163158,0.186316,0.162105,0.225263
0.095789,0.151579,0.171579,0.149474,0.209474
0.095789,0.151579,0.171579,0.149474,0.209474
0.091579,0.142105,0.158947,0.140000,0.196842
0.087368,0.133684,0.149474,0.133684,0.185263
0.087368,0.133684,0.149474,0.133684,0.185263
0.084211,0.126316,0.140000,0.127368,0.175789
0.084211,0.126316,0.140000,0.127368,0.175789
0.078947,0.120000,0.131579,0.123158,0.166316
0.078947,0.120000,0.131579,0.123158,0.166316
0.074737,0.113684,0.124211,0.117895,0.156842
0.074737,0.113684,0.124211,0.117895,0.156842
0.071579,0.108421,0.116842,0.113684,0.148421
0.068421,0.103158,0.109474,0.109474,0.142105
0.068421,0.103158,0.109474,0.109474,0.142105
0.065263,0.100000,0.105263,0.106316,0.136842
0.065263,0.100000,0.105263,0.106316,0.136842
0.062105,0.096842,0.102105,0.103158,0.131579
0.062105,0.096842,0.102105,0.103158,0.131579
0.060000,0.093684,0.098947,0.101053,0.128421
0.060000,0.093684,0.098947,0.101053,0.128421
0.058947,0.091579,0.096842,0.097895,0.126316
0.058947,0.091579,0.096842,0.097895,0.126316
0.056842,0.090526,0.095789,0.097895,0.124211
0.056842,0.090526,0.095789,0.097895,0.124211
0.054737,0.088421,0.093684,0.096842,0.122105
0.054737,0.088421,0.093684,0.096842,0.122105
0.053684,0.087368,0.092632,0.094737,0.121053
0.053684,0.087368,0.092632,0.094737,0.121053
0.051579,0.086316,0.092632,0.093684,0.118947
0.051579,0.086316,0.092632,0.093684,0.118947
0.052632,0.086316,0.091579,0.092632,0.117895
0.051579,0.085263,0.090526,0.091579,0.116842
0.050526,0.083158,0.089474,0.090526,0.115789
0.050526,0.083158,0.089474,0.090526,0.115789
0.050526,0.083158,0.089474,0.090526,0.115789
0.050526,0.083158,0.089474,0.090526,0.115789
0.049474,0.082105,0.089474,0.088421,0.114737
0.049474,0.082105,0.089474,0.088421,0.114737
0.048421,0.082105,0.089474,0.088421,0.114737
0.047368,0.082105,0.089474,0.087368,0.115789
0.047368,0.082105,0.089474,0.087368,0.115789
0.046316,0.082105,0.090526,0.086316,0.116842
0.046316,0.082105,0.090526,0.086316,0.116842
0.047368,0.081053,0.090526,0.086316,0.116842
0.047368,0.081053,0.090526,0.086316,0.116842
0.046316,0.081053,0.092632,0.085263,0.116842
0.046316,0.081053,0.092632,0.085263,0.116842
0.046316,0.080000,0.095789,0.084211,0.118947
0.045263,0.080000,0.104211,0.084211,0.121053
0.045263,0.080000,0.104211,0.084211,0.121053
0.044211,0.081053,0.127368,0.085263,0.123158
0.044211,0.081053,0.127368,0.085263,0.123158
0.044211,0.082105,0.164211,0.086316,0.128421
0.044211,0.082105,0.164211,0.086316,0.128421
0.044211,0.084211,0.209474,0.092632,0.137895
0.044211,0.084211,0.209474,0.092632,0.137895
0.043158,0.086316,0.273684,0.112632,0.154737
0.043158,0.086316,0.273684,0.112632,0.154737
0.043158,0.093684,0.353684,0.156842,0.184211
0.043158,0.093684,0.353684,0.156842,0.184211
0.044211,0.109474,0.454737,0.236842,0.238947
0.044211,0.109474,0.454737,0.236842,0.238947
0.044211,0.138947,0.573684,0.374737,0.330526
0.045263,0.186316,0.671579,0.536842,0.432632
0.045263,0.186316,0.671579,0.536842,0.432632
0.047368,0.251579,0.757895,0.667368,0.526316
0.047368,0.251579,0.757895,0.667368,0.526316
0.051579,0.350526,0.817895,0.756842,0.623158
0.057895,0.463158,0.863158,0.817895,0.711579
0.057895,0.463158,0.863158,0.817895,0.711579
0.069474,0.585263,0.897895,0.867368,0.783158
0.069474,0.585263,0.897895,0.867368,0.783158
0.090526,0.698947,0.922105,0.903158,0.845263
0.090526,0.698947,0.922105,0.903158,0.845263
0.124211,0.786316,0.938947,0.926316,0.887368
0.124211,0.786316,0.938947,0.926316,0.887368
0.163158,0.845263,0.951579,0.941053,0.916842
0.222105,0.885263,0.962105,0.956842,0.938947
0.222105,0.885263,0.962105,0.956842,0.938947
0.310526,0.915789,0.971579,0.969474,0.957895
0.310526,0.915789,0.971579,0.969474,0.957895
0.397895,0.934737,0.977895,0.975789,0.967368
0.397895,0.934737,0.977895,0.975789,0.967368
0.480000,0.946316,0.983158,0.982105,0.973684
0.480000,0.946316,0.983158,0.982105,0.973684
0.551579,0.960000,0.990526,0.988421,0.976842
0.607368,0.968421,0.993684,0.993684,0.981053
0.607368,0.968421,0.993684,0.993684,0.981053
0.661053,0.975789,0.996842,0.995789,0.984211
0.661053,0.975789,0.996842,0.995789,0.984211
0.705263,0.980000,1.000000,0.996842,0.985263
0.705263,0.980000,1.000000,0.996842,0.985263
0.735789,0.984211,1.000000,0.998947,0.985263
0.765263,0.985263,1.000000,0.998947,0.985263
0.765263,0.985263,1.000000,0.998947,0.985263
0.798947,0.987368,1.000000,0.998947,0.984211
0.824211,0.985263,1.000000,0.996842,0.984211
0.824211,0.985263,1.000000,0.996842,0.984211
0.847368,0.982105,1.000000,0.995789,0.984211
0.847368,0.982105,1.000000,0.995789,0.984211
0.869474,0.978947,1.000000,0.992632,0.984211
0.869474,0.978947,1.000000,0.992632,0.984211
0.888421,0.978947,1.000000,0.990526,0.984211
0.902105,0.977895,1.000000,0.988421,0.984211
0.902105,0.977895,1.000000,0.988421,0.984211
0.914737,0.977895,1.000000,0.986316,0.986316
0.914737,0.977895,1.000000,0.986316,0.986316
0.925263,0.976842,1.000000,0.984211,0.989474
0.925263,0.976842,1.000000,0.984211,0.989474
0.934737,0.976842,1.000000,0.982105,0.990526
0.934737,0.976842,1.000000,0.982105,0.990526
0.943158,0.978947,1.000000,0.977895,0.991579
0.943158,0.978947,1.000000,0.977895,0.991579
0.954737,0.978947,1.000000,0.975789,0.993684
0.954737,0.978947,1.000000,0.975789,0.993684
0.963158,0.978947,1.000000,0.972632,0.994737
0.963158,0.978947,1.000000,0.972632,0.994737
0.967368,0.978947,1.000000,0.970526,0.996842
0.967368,0.978947,1.000000,0.970526,0.996842
0.970526,0.978947,1.000000,0.968421,0.996842
0.970526,0.978947,1.000000,0.968421,0.996842
0.974737,0.977895,1.000000,0.966316,0.996842
0.982105,0.978947,1.000000,0.964211,0.995789
0.982105,0.978947,1.000000,0.964211,0.995789
0.983158,0.977895,1.000000,0.962105,0.996842
0.983158,0.977895,1.000000,0.962105,0.996842
0.984211,0.976842,0.998947,0.960000,0.996842
0.984211,0.976842,0.998947,0.960000,0.996842
0.984211,0.974737,0.997895,0.958947,0.996842
0.984211,0.974737,0.997895,0.958947,0.996842
0.983158,0.973684,0.996842,0.956842,0.995789
0.984211,0.973684,0.995789,0.954737,0.995789
0.984211,0.971579,0.994737,0.952632,0.995789
0.984211,0.971579,0.994737,0.952632,0.995789
0.981053,0.969474,0.992632,0.951579,0.994737
0.981053,0.969474,0.992632,0.951579,0.994737
0.980000,0.968421,0.991579,0.949474,0.993684
0.980000,0.968421,0.991579,0.949474,0.993684
0.976842,0.968421,0.991579,0.949474,0.991579
0.976842,0.968421,0.991579,0.949474,0.991579
0.973684,0.967368,0.989474,0.948421,0.989474
0.970526,0.966316,0.988421,0.947368,0.987368
0.970526,0.966316,0.988421,0.947368,0.987368
0.964211,0.965263,0.988421,0.946316,0.984211
0.964211,0.965263,0.988421,0.946316,0.984211
0.956842,0.964211,0.987368,0.947368,0.981053
0.956842,0.964211,0.987368,0.947368,0.981053
0.948421,0.964211,0.986316,0.945263,0.978947
0.948421,0.964211,0.986316,0.945263,0.978947
0.936842,0.963158,0.985263,0.944210,0.974737
0.936842,0.963158,0.985263,0.944210,0.974737
0.914737,0.962105,0.983158,0.943158,0.970526
0.914737,0.962105,0.983158,0.943158,0.970526
0.874737,0.957895,0.976842,0.941053,0.965263
0.874737,0.957895,0.976842,0.941053,0.965263
0.802105,0.954737,0.973684,0.938947,0.956842
0.802105,0.954737,0.973684,0.938947,0.956842
0.674737,0.949474,0.968421,0.935789,0.945263
0.674737,0.949474,0.968421,0.935789,0.945263
0.506316,0.942105,0.962105,0.925263,0.924211
0.368421,0.930526,0.952632,0.913684,0.891579
0.368421,0.930526,0.952632,0.913684,0.891579
0.288421,0.913684,0.941053,0.896842,0.851579
0.288421,0.913684,0.941053,0.896842,0.851579
0.236842,0.885263,0.923158,0.874737,0.796842
0.236842,0.885263,0.923158,0.874737,0.796842
0.205263,0.831579,0.897895,0.843158,0.722105
0.205263,0.831579,0.897895,0.843158,0.722105
0.166316,0.606316,0.792632,0.692632,0.572632
0.166316,0.606316,0.792632,0.692632,0.572632
0.153684,0.503158,0.697895,0.586316,0.516842
0.153684,0.503158,0.697895,0.586316,0.516842
0.144211,0.424211,0.595789,0.487368,0.469474
0.144211,0.424211,0.595789,0.487368,0.469474
0.135789,0.362105,0.504211,0.408421,0.428421
0.135789,0.362105,0.504211,0.408421,0.428421
0.128421,0.313684,0.425263,0.345263,0.384211
0.121053,0.273684,0.361053,0.294737,0.347368
0.121053,0.273684,0.361053,0.294737,0.347368
0.115789,0.242105,0.307368,0.253684,0.313684
0.115789,0.242105,0.307368,0.253684,0.313684
0.110526,0.216842,0.264211,0.220000,0.284211
0.110526,0.216842,0.264211,0.220000,0.284211
0.106316,0.195789,0.231579,0.194737,0.257895
0.106316,0.195789,0.231579,0.194737,0.257895
0.103158,0.177895,0.209474,0.175789,0.237895
0.103158,0.177895,0.209474,0.175789,0.237895
0.098947,0.165263,0.192632,0.162105,0.221053
0.098947,0.165263,0.192632,0.162105,0.221053
0.094737,0.153684,0.178947,0.149474,0.206316
0.094737,0.153684,0.178947,0.149474,0.206316
0.089474,0.145263,0.168421,0.141053,0.194737
0.089474,0.145263,0.168421,0.141053,0.194737
0.084211,0.136842,0.158947,0.133684,0.185263
0.084211,0.136842,0.158947,0.133684,0.185263
0.080000,0.130526,0.150526,0.128421,0.175789
0.075789,0.123158,0.142105,0.123158,0.167368
0.075789,0.123158,0.142105,0.123158,0.167368
0.071579,0.116842,0.134737,0.118947,0.157895
0.071579,0.116842,0.134737,0.118947,0.157895
0.066316,0.110526,0.127368,0.113684,0.149474
0.066316,0.110526,0.127368,0.113684,0.149474
0.064211,0.107368,0.124211,0.112632,0.144211
0.061053,0.102105,0.117895,0.108421,0.135789
0.061053,0.102105,0.117895,0.108421,0.135789
0.056842,0.096842,0.111579,0.104211,0.128421
0.054737,0.093684,0.106316,0.100000,0.123158
0.054737,0.093684,0.106316,0.100000,0.123158
0.051579,0.091579,0.104211,0.096842,0.118947
0.051579,0.091579,0.104211,0.096842,0.118947
0.049474,0.089474,0.102105,0.094737,0.116842
0.049474,0.089474,0.102105,0.094737,0.116842
0.049474,0.087368,0.100000,0.092632,0.114737
0.049474,0.087368,0.100000,0.092632,0.114737
0.047368,0.086316,0.097895,0.091579,0.112632
0.046316,0.085263,0.096842,0.090526,0.111579
0.046316,0.085263,0.096842,0.090526,0.111579
0.044211,0.084211,0.096842,0.089474,0.110526
0.044211,0.084211,0.096842,0.089474,0.110526
0.044211,0.083158,0.095789,0.088421,0.109474
0.044211,0.083158,0.095789,0.088421,0.109474
0.042105,0.082105,0.094737,0.087368,0.108421
0.042105,0.082105,0.094737,0.087368,0.108421
0.042105,0.082105,0.093684,0.086316,0.107368
0.042105,0.082105,0.093684,0.086316,0.107368
0.041053,0.081053,0.093684,0.085263,0.106316
0.041053,0.081053,0.093684,0.085263,0.106316
0.040000,0.080000,0.093684,0.084211,0.106316
0.040000,0.080000,0.093684,0.084211,0.106316
0.038947,0.080000,0.092632,0.084211,0.106316
0.038947,0.080000,0.092632,0.084211,0.106316
0.037895,0.080000,0.093684,0.083158,0.106316
0.037895,0.080000,0.093684,0.083158,0.106316
0.037895,0.080000,0.092632,0.083158,0.107368
0.037895,0.080000,0.093684,0.082105,0.107368
0.037895,0.080000,0.093684,0.082105,0.107368
0.036842,0.080000,0.094737,0.081053,0.109474
0.036842,0.080000,0.094737,0.081053,0.109474
0.036842,0.078947,0.097895,0.081053,0.110526
0.036842,0.080000,0.107368,0.081053,0.113684
0.036842,0.080000,0.107368,0.081053,0.113684
0.037895,0.082105,0.131579,0.081053,0.117895
0.040000,0.084211,0.181053,0.082105,0.128421
0.040000,0.084211,0.181053,0.082105,0.128421
0.042105,0.088421,0.262105,0.092632,0.157895
0.042105,0.088421,0.262105,0.092632,0.157895
0.047368,0.101053,0.362105,0.142105,0.216842
0.047368,0.101053,0.362105,0.142105,0.216842
0.056842,0.127368,0.485263,0.252632,0.301053
0.056842,0.127368,0.485263,0.252632,0.301053
0.075789,0.178947,0.602105,0.393684,0.393684
0.108421,0.253684,0.689474,0.535789,0.485263
0.108421,0.253684,0.689474,0.535789,0.485263
0.162105,0.349474,0.762105,0.670526,0.570526
0.162105,0.349474,0.762105,0.670526,0.570526
0.221053,0.465263,0.816842,0.754737,0.641053
0.300000,0.593684,0.856842,0.805263,0.706316
0.300000,0.593684,0.856842,0.805263,0.706316
0.394737,0.722105,0.888421,0.844211,0.766316
0.475789,0.807368,0.912632,0.873684,0.816842
0.475789,0.807368,0.912632,0.873684,0.816842
0.543158,0.865263,0.931579,0.898947,0.856842
0.543158,0.865263,0.931579,0.898947,0.856842
0.589474,0.904211,0.947368,0.920000,0.889474
0.589474,0.904211,0.947368,0.920000,0.889474
0.627368,0.930526,0.961053,0.938947,0.917895
0.627368,0.930526,0.961053,0.938947,0.917895
0.672632,0.946316,0.972632,0.953684,0.938947
0.707368,0.962105,0.981053,0.966316,0.953684
0.707368,0.962105,0.981053,0.966316,0.953684
0.743158,0.970526,0.987368,0.973684,0.963158
0.743158,0.970526,0.987368,0.973684,0.963158
0.768421,0.978947,0.991579,0.978947,0.967368
0.795789,0.983158,0.995789,0.984211,0.970526
0.795789,0.983158,0.995789,0.984211,0.970526
0.820000,0.983158,0.996842,0.985263,0.972632
0.820000,0.983158,0.996842,0.985263,0.972632
0.842105,0.985263,1.000000,0.987368,0.974737
0.860000,0.983158,1.000000,0.986316,0.977895
0.860000,0.983158,1.000000,0.986316,0.977895
0.874737,0.981053,1.000000,0.985263,0.977895
0.874737,0.981053,1.000000,0.985263,0.977895
0.889474,0.981053,1.000000,0.984211,0.980000
0.889474,0.981053,1.000000,0.984211,0.980000
0.900000,0.981053,1.000000,0.982105,0.981053
0.900000,0.981053,1.000000,0.982105,0.981053
0.906316,0.980000,1.000000,0.978947,0.982105
0.916842,0.981053,1.000000,0.975789,0.982105
0.916842,0.981053,1.000000,0.975789,0.982105
0.923158,0.978947,1.000000,0.973684,0.982105
0.923158,0.978947,1.000000,0.973684,0.982105
0.928421,0.980000,1.000000,0.970526,0.983158
0.928421,0.980000,1.000000,0.970526,0.983158
0.932632,0.981053,1.000000,0.968421,0.984211
0.932632,0.981053,1.000000,0.968421,0.984211
0.936842,0.981053,1.000000,0.965263,0.984211
0.944210,0.981053,1.000000,0.964211,0.984211
0.944210,0.981053,1.000000,0.964211,0.984211
0.947368,0.982105,1.000000,0.962105,0.985263
0.947368,0.982105,1.000000,0.962105,0.985263
0.948421,0.978947,0.998947,0.958947,0.986316
0.948421,0.978947,0.998947,0.958947,0.986316
0.952632,0.980000,0.997895,0.957895,0.987368
0.952632,0.980000,0.997895,0.957895,0.987368
0.957895,0.980000,0.997895,0.955790,0.988421
0.957895,0.980000,0.997895,0.955790,0.988421
0.957895,0.977895,0.997895,0.953684,0.989474
0.957895,0.977895,0.997895,0.953684,0.989474
0.958947,0.977895,0.995789,0.952632,0.990526
0.958947,0.977895,0.995789,0.952632,0.990526
0.960000,0.975789,0.995789,0.950526,0.990526
0.960000,0.973684,0.994737,0.949474,0.989474
0.960000,0.973684,0.994737,0.949474,0.989474
0.960000,0.972632,0.993684,0.947368,0.989474
0.956842,0.971579,0.993684,0.947368,0.988421
0.956842,0.971579,0.993684,0.947368,0.988421
0.954737,0.969474,0.991579,0.945263,0.986316
0.954737,0.969474,0.991579,0.945263,0.986316
0.952632,0.968421,0.991579,0.945263,0.985263
0.952632,0.968421,0.991579,0.945263,0.985263
0.950526,0.966316,0.989474,0.943158,0.983158
0.950526,0.966316,0.989474,0.943158,0.983158
0.946316,0.965263,0.989474,0.943158,0.980000
0.943158,0.964211,0.989474,0.942105,0.977895
0.943158,0.964211,0.989474,0.942105,0.977895
0.937895,0.964211,0.988421,0.941053,0.976842
0.937895,0.964211,0.988421,0.941053,0.976842
0.932632,0.963158,0.987368,0.940000,0.973684
0.932632,0.963158,0.987368,0.940000,0.973684
0.922105,0.964211,0.986316,0.940000,0.969474
0.922105,0.964211,0.986316,0.940000,0.969474
0.903158,0.962105,0.985263,0.938947,0.965263
0.877895,0.957895,0.982105,0.936842,0.961053
0.877895,0.957895,0.982105,0.936842,0.961053
0.837895,0.952632,0.977895,0.934737,0.954737
0.837895,0.952632,0.977895,0.934737,0.954737
0.773684,0.946316,0.974737,0.927368,0.945263
0.773684,0.946316,0.974737,0.927368,0.945263
0.669474,0.937895,0.965263,0.916842,0.928421
0.669474,0.937895,0.965263,0.916842,0.928421
0.545263,0.922105,0.951579,0.897895,0.894737
0.545263,0.922105,0.951579,0.897895,0.894737
0.417895,0.894737,0.931579,0.866316,0.834737
0.417895,0.894737,0.931579,0.866316,0.834737
0.325263,0.856842,0.902105,0.827368,0.754737
0.325263,0.856842,0.902105,0.827368,0.754737
0.258947,0.815789,0.868421,0.780000,0.677895
0.211579,0.730526,0.813684,0.710526,0.607368
0.211579,0.730526,0.813684,0.710526,0.607368
0.185263,0.593684,0.721053,0.593684,0.546316
0.185263,0.593684,0.721053,0.593684,0.546316
0.168421,0.468421,0.606316,0.474737,0.485263
0.154737,0.388421,0.497895,0.375789,0.423158
0.154737,0.388421,0.497895,0.375789,0.423158
0.145263,0.330526,0.412632,0.311579,0.371579
0.145263,0.330526,0.412632,0.311579,0.371579
0.135789,0.284211,0.344211,0.265263,0.329474
0.135789,0.284211,0.344211,0.265263,0.329474
0.128421,0.248421,0.290526,0.228421,0.295789
0.128421,0.248421,0.290526,0.228421,0.295789
0.120000,0.218947,0.250526,0.200000,0.268421
0.112632,0.196842,0.223158,0.178947,0.243158
0.112632,0.196842,0.223158,0.178947,0.243158
0.106316,0.180000,0.204211,0.163158,0.224211
0.106316,0.180000,0.204211,0.163158,0.224211
0.100000,0.165263,0.189474,0.150526,0.209474
0.100000,0.165263,0.189474,0.150526,0.209474
0.095789,0.155789,0.177895,0.142105,0.196842
0.095789,0.155789,0.177895,0.142105,0.196842
0.093684,0.150526,0.172632,0.138947,0.191579
0.087368,0.143158,0.163158,0.131579,0.181053
0.087368,0.143158,0.163158,0.131579,0.181053
0.082105,0.135789,0.154737,0.127368,0.171579
0.082105,0.135789,0.154737,0.127368,0.171579
0.076842,0.129474,0.146316,0.122105,0.162105
0.076842,0.129474,0.146316,0.122105,0.162105
0.073684,0.124211,0.137895,0.118947,0.151579
0.073684,0.124211,0.137895,0.118947,0.151579
0.069474,0.117895,0.130526,0.114737,0.144211
0.069474,0.117895,0.130526,0.114737,0.144211
0.066316,0.112632,0.124211,0.110526,0.136842
0.063158,0.109474,0.118947,0.107368,0.131579
0.063158,0.109474,0.118947,0.107368,0.131579
0.061053,0.106316,0.115789,0.105263,0.128421
0.061053,0.106316,0.115789,0.105263,0.128421
0.060000,0.104211,0.113684,0.103158,0.126316
0.060000,0.104211,0.113684,0.103158,0.126316
0.057895,0.102105,0.111579,0.102105,0.123158
0.056842,0.100000,0.109474,0.100000,0.121053
0.056842,0.100000,0.109474,0.100000,0.121053
0.055789,0.097895,0.107368,0.098947,0.118947
0.055789,0.097895,0.107368,0.098947,0.118947
0.054737,0.096842,0.106316,0.097895,0.117895
0.054737,0.096842,0.106316,0.097895,0.117895
0.054737,0.095789,0.105263,0.096842,0.116842
0.054737,0.095789,0.105263,0.096842,0.116842
0.052632,0.095789,0.104211,0.095789,0.115789
0.051579,0.094737,0.103158,0.094737,0.114737
0.051579,0.094737,0.103158,0.094737,0.114737
0.050526,0.093684,0.102105,0.093684,0.114737
0.050526,0.093684,0.102105,0.093684,0.114737
0.050526,0.092632,0.101053,0.092632,0.112632
0.050526,0.092632,0.101053,0.092632,0.112632
0.049474,0.091579,0.101053,0.091579,0.111579
0.049474,0.091579,0.101053,0.091579,0.111579
0.049474,0.091579,0.100000,0.091579,0.112632
0.048421,0.090526,0.100000,0.090526,0.113684
0.048421,0.090526,0.100000,0.090526,0.113684
0.048421,0.090526,0.100000,0.089474,0.113684
0.048421,0.090526,0.100000,0.089474,0.113684
0.047368,0.089474,0.101053,0.088421,0.114737
0.047368,0.089474,0.101053,0.088421,0.114737
0.046316,0.089474,0.101053,0.088421,0.114737
0.046316,0.089474,0.101053,0.088421,0.114737
0.046316,0.088421,0.102105,0.086316,0.115789
0.046316,0.088421,0.102105,0.086316,0.115789
0.046316,0.089474,0.107368,0.087368,0.116842
0.046316,0.090526,0.124211,0.088421,0.118947
0.046316,0.090526,0.124211,0.088421,0.118947
0.045263,0.091579,0.158947,0.090526,0.122105
0.045263,0.091579,0.158947,0.090526,0.122105
0.046316,0.093684,0.198947,0.101053,0.131579
0.046316,0.093684,0.198947,0.101053,0.131579
0.048421,0.100000,0.251579,0.135789,0.149474
0.048421,0.100000,0.251579,0.135789,0.149474
0.050526,0.112632,0.329474,0.208421,0.184211
0.052632,0.140000,0.418947,0.322105,0.238947
0.052632,0.140000,0.418947,0.322105,0.238947
0.056842,0.180000,0.494737,0.484211,0.323158
0.056842,0.180000,0.494737,0.484211,0.323158
0.063158,0.217895,0.552632,0.638947,0.428421
0.063158,0.217895,0.552632,0.638947,0.428421
0.076842,0.260000,0.605263,0.727368,0.531579
0.076842,0.260000,0.605263,0.727368,0.531579
0.109474,0.330526,0.684211,0.800000,0.635790
0.166316,0.435789,0.760000,0.860000,0.741053
0.166316,0.435789,0.760000,0.860000,0.741053
0.238947,0.555789,0.818947,0.902105,0.813684
0.238947,0.555789,0.818947,0.902105,0.813684
0.309474,0.658947,0.858947,0.927368,0.854737
0.309474,0.658947,0.858947,0.927368,0.854737
0.391579,0.745263,0.893684,0.946316,0.888421
0.391579,0.745263,0.893684,0.946316,0.888421
0.483158,0.811579,0.916842,0.960000,0.911579
0.564211,0.854737,0.934737,0.970526,0.926316
0.564211,0.854737,0.934737,0.970526,0.926316
0.635790,0.888421,0.949474,0.978947,0.936842
0.635790,0.888421,0.949474,0.978947,0.936842
0.695789,0.911579,0.961053,0.984211,0.946316
0.695789,0.911579,0.961053,0.984211,0.946316
0.744210,0.929474,0.970526,0.988421,0.950526
0.744210,0.929474,0.970526,0.988421,0.950526
0.788421,0.940000,0.974737,0.992632,0.953684
0.828421,0.948421,0.978947,0.993684,0.956842
0.828421,0.948421,0.978947,0.993684,0.956842
0.854737,0.956842,0.983158,0.994737,0.958947
0.854737,0.956842,0.983158,0.994737,0.958947
0.874737,0.961053,0.985263,0.994737,0.961053
0.874737,0.961053,0.985263,0.994737,0.961053
0.890526,0.965263,0.987368,0.993684,0.964211
0.890526,0.965263,0.987368,0.993684,0.964211
0.910526,0.970526,0.990526,0.994737,0.966316
0.929474,0.973684,0.994737,0.994737,0.968421
0.929474,0.973684,0.994737,0.994737,0.968421
0.944210,0.974737,0.995789,0.992632,0.970526
0.944210,0.974737,0.995789,0.992632,0.970526
0.956842,0.976842,0.998947,0.990526,0.971579
0.956842,0.976842,0.998947,0.990526,0.971579
0.969474,0.977895,0.998947,0.988421,0.974737
0.969474,0.977895,0.998947,0.988421,0.974737
0.978947,0.978947,1.000000,0.986316,0.977895
0.986316,0.978947,1.000000,0.983158,0.980000
0.986316,0.978947,1.000000,0.983158,0.980000
0.991579,0.978947,1.000000,0.982105,0.981053
0.991579,0.978947,1.000000,0.982105,0.981053
0.994737,0.978947,1.000000,0.978947,0.984211
0.994737,0.978947,1.000000,0.978947,0.984211
0.996842,0.978947,0.998947,0.974737,0.986316
0.996842,0.978947,0.998947,0.974737,0.986316
0.998947,0.981053,0.997895,0.971579,0.987368
0.996842,0.978947,0.997895,0.969474,0.987368
0.996842,0.978947,0.997895,0.969474,0.987368
0.992632,0.981053,0.995789,0.967368,0.988421
0.992632,0.981053,0.995789,0.967368,0.988421
0.988421,0.980000,0.993684,0.963158,0.987368
0.988421,0.980000,0.993684,0.963158,0.987368
0.982105,0.980000,0.992632,0.963158,0.988421
0.977895,0.981053,0.991579,0.961053,0.986316
0.977895,0.981053,0.991579,0.961053,0.986316
0.971579,0.982105,0.990526,0.960000,0.986316
0.966316,0.981053,0.989474,0.957895,0.985263
0.966316,0.981053,0.989474,0.957895,0.985263
0.963158,0.981053,0.987368,0.956842,0.984211
0.963158,0.981053,0.987368,0.956842,0.984211
0.960000,0.980000,0.986316,0.956842,0.982105
0.960000,0.980000,0.986316,0.956842,0.982105
0.958947,0.980000,0.985263,0.954737,0.981053
0.958947,0.980000,0.985263,0.954737,0.981053
0.956842,0.978947,0.983158,0.954737,0.981053
0.954737,0.976842,0.982105,0.953684,0.978947
0.954737,0.976842,0.982105,0.953684,0.978947
0.952632,0.975789,0.981053,0.951579,0.976842
0.952632,0.975789,0.981053,0.951579,0.976842
0.951579,0.974737,0.980000,0.951579,0.973684
0.951579,0.974737,0.980000,0.951579,0.973684
0.947368,0.972632,0.980000,0.950526,0.971579
0.947368,0.972632,0.980000,0.950526,0.971579
0.945263,0.969474,0.978947,0.950526,0.965263
0.945263,0.969474,0.978947,0.950526,0.965263
0.940000,0.965263,0.977895,0.948421,0.962105
0.940000,0.965263,0.977895,0.948421,0.962105
0.927368,0.962105,0.977895,0.947368,0.956842
0.927368,0.962105,0.977895,0.947368,0.956842
0.907368,0.957895,0.975789,0.946316,0.948421
0.907368,0.957895,0.975789,0.946316,0.948421
0.868421,0.951579,0.972632,0.943158,0.936842
0.868421,0.951579,0.972632,0.943158,0.936842
0.803158,0.943158,0.966316,0.937895,0.917895
0.700000,0.934737,0.957895,0.926316,0.887368
0.700000,0.934737,0.957895,0.926316,0.887368
0.591579,0.920000,0.945263,0.911579,0.846316
0.591579,0.920000,0.945263,0.911579,0.846316
0.495789,0.900000,0.929474,0.894737,0.788421
0.495789,0.900000,0.929474,0.894737,0.788421
0.402105,0.873684,0.908421,0.872632,0.730526
0.324211,0.838947,0.883158,0.842105,0.673684
0.268421,0.784211,0.844211,0.800000,0.611579
0.268421,0.784211,0.844211,0.800000,0.611579
0.224211,0.726316,0.800000,0.746316,0.553684
0.224211,0.726316,0.800000,0.746316,0.553684
0.200000,0.602105,0.737895,0.673684,0.506316
0.200000,0.602105,0.737895,0.673684,0.506316
0.184211,0.493684,0.661053,0.587368,0.464211
0.184211,0.493684,0.661053,0.587368,0.464211
0.172632,0.421053,0.555789,0.485263,0.426316
0.160000,0.367368,0.480000,0.410526,0.391579
0.160000,0.367368,0.480000,0.410526,0.391579
0.155789,0.346316,0.443158,0.375789,0.373684
0.155789,0.346316,0.443158,0.375789,0.373684
0.146316,0.306316,0.376842,0.315789,0.338947
0.146316,0.306316,0.376842,0.315789,0.338947
0.137895,0.272632,0.322105,0.271579,0.308421
0.137895,0.272632,0.322105,0.271579,0.308421
0.132632,0.242105,0.276842,0.232632,0.278947
0.132632,0.242105,0.276842,0.232632,0.278947
0.125263,0.217895,0.241053,0.204211,0.254737
0.125263,0.217895,0.241053,0.204211,0.254737
0.118947,0.198947,0.215789,0.183158,0.233684
0.118947,0.198947,0.215789,0.183158,0.233684
0.111579,0.183158,0.196842,0.167368,0.216842
0.111579,0.183158,0.196842,0.167368,0.216842
0.104211,0.171579,0.181053,0.153684,0.203158
0.104211,0.171579,0.181053,0.153684,0.203158
0.098947,0.160000,0.169474,0.144211,0.191579
0.091579,0.150526,0.158947,0.135789,0.182105
0.091579,0.150526,0.158947,0.135789,0.182105
0.084211,0.142105,0.150526,0.129474,0.172632
0.080000,0.135789,0.143158,0.124211,0.163158
0.080000,0.135789,0.143158,0.124211,0.163158
0.073684,0.129474,0.136842,0.118947,0.153684
0.073684,0.129474,0.136842,0.118947,0.153684
0.069474,0.124211,0.130526,0.114737,0.146316
0.069474,0.124211,0.130526,0.114737,0.146316
0.065263,0.118947,0.125263,0.111579,0.140000
0.062105,0.114737,0.121053,0.108421,0.134737
0.062105,0.114737,0.121053,0.108421,0.134737
0.058947,0.111579,0.117895,0.105263,0.131579
0.058947,0.111579,0.117895,0.105263,0.131579
0.056842,0.109474,0.114737,0.103158,0.129474
0.056842,0.109474,0.114737,0.103158,0.129474
0.054737,0.107368,0.112632,0.102105,0.127368
0.054737,0.107368,0.112632,0.102105,0.127368
0.053684,0.105263,0.111579,0.100000,0.124211
0.051579,0.104211,0.109474,0.098947,0.123158
0.051579,0.104211,0.109474,0.098947,0.123158
0.051579,0.102105,0.108421,0.096842,0.121053
0.051579,0.102105,0.108421,0.096842,0.121053
0.049474,0.101053,0.108421,0.096842,0.120000
0.049474,0.101053,0.108421,0.096842,0.120000
0.049474,0.098947,0.106316,0.094737,0.118947
0.049474,0.098947,0.106316,0.094737,0.118947
0.048421,0.097895,0.106316,0.093684,0.117895
0.046316,0.097895,0.105263,0.092632,0.116842
0.046316,0.097895,0.105263,0.092632,0.116842
0.045263,0.096842,0.105263,0.092632,0.115789
0.045263,0.096842,0.105263,0.092632,0.115789
0.044211,0.095789,0.104211,0.091579,0.114737
0.044211,0.095789,0.104211,0.091579,0.114737
0.044211,0.094737,0.103158,0.090526,0.114737
0.044211,0.094737,0.103158,0.090526,0.114737
0.044211,0.094737,0.103158,0.089474,0.114737
0.043158,0.093684,0.103158,0.088421,0.114737
0.042105,0.093684,0.104211,0.088421,0.115789
0.042105,0.093684,0.104211,0.088421,0.115789
0.042105,0.093684,0.106316,0.088421,0.116842
0.042105,0.093684,0.106316,0.088421,0.116842
0.043158,0.092632,0.109474,0.087368,0.116842
0.043158,0.092632,0.109474,0.087368,0.116842
0.044211,0.093684,0.123158,0.087368,0.120000
0.044211,0.093684,0.161053,0.090526,0.125263
0.044211,0.093684,0.161053,0.090526,0.125263
0.046316,0.096842,0.214737,0.102105,0.134737
0.046316,0.096842,0.214737,0.102105,0.134737
0.047368,0.102105,0.270526,0.149474,0.153684
0.047368,0.102105,0.270526,0.149474,0.153684
0.048421,0.114737,0.340000,0.226316,0.186316
0.048421,0.114737,0.340000,0.226316,0.186316
0.051579,0.142105,0.433684,0.336842,0.241053
0.055789,0.194737,0.530526,0.482105,0.324211
0.055789,0.194737,0.530526,0.482105,0.324211
0.060000,0.266316,0.607368,0.616842,0.441053
0.060000,0.266316,0.607368,0.616842,0.441053
0.066316,0.356842,0.681053,0.715789,0.550526
0.066316,0.356842,0.681053,0.715789,0.550526
0.078947,0.466316,0.752632,0.790526,0.655789
0.078947,0.466316,0.752632,0.790526,0.655789
0.103158,0.584211,0.809474,0.840000,0.738947
0.133684,0.672632,0.846316,0.875789,0.795789
0.133684,0.672632,0.846316,0.875789,0.795789
0.164211,0.736842,0.872632,0.902105,0.842105
0.164211,0.736842,0.872632,0.902105,0.842105
0.204211,0.790526,0.893684,0.924211,0.877895
0.204211,0.790526,0.893684,0.924211,0.877895
0.254737,0.836842,0.911579,0.937895,0.902105
0.254737,0.836842,0.911579,0.937895,0.902105
0.316842,0.866316,0.923158,0.951579,0.920000
0.373684,0.887368,0.933684,0.961053,0.932632
0.423158,0.903158,0.938947,0.964211,0.940000
0.423158,0.903158,0.938947,0.964211,0.940000
0.466316,0.922105,0.949474,0.969474,0.945263
0.466316,0.922105,0.949474,0.969474,0.945263
0.510526,0.936842,0.956842,0.973684,0.948421
0.510526,0.936842,0.956842,0.973684,0.948421
0.548421,0.946316,0.962105,0.976842,0.951579
0.548421,0.946316,0.962105,0.976842,0.951579
0.588421,0.950526,0.965263,0.978947,0.953684
0.627368,0.954737,0.967368,0.980000,0.956842
0.627368,0.954737,0.967368,0.980000,0.956842
0.658947,0.961053,0.970526,0.983158,0.961053
0.658947,0.961053,0.970526,0.983158,0.961053
0.682105,0.966316,0.976842,0.985263,0.964211
0.682105,0.966316,0.976842,0.985263,0.964211
0.705263,0.971579,0.982105,0.986316,0.965263
0.705263,0.971579,0.982105,0.986316,0.965263
0.729474,0.975789,0.985263,0.986316,0.966316
0.754737,0.977895,0.987368,0.984211,0.967368
0.754737,0.977895,0.987368,0.984211,0.967368
0.777895,0.977895,0.989474,0.982105,0.969474
0.777895,0.977895,0.989474,0.982105,0.969474
0.805263,0.980000,0.992632,0.981053,0.971579
0.805263,0.980000,0.992632,0.981053,0.971579
0.831579,0.981053,0.993684,0.976842,0.973684
0.831579,0.981053,0.993684,0.976842,0.973684
0.856842,0.981053,0.996842,0.975789,0.977895
0.877895,0.981053,0.996842,0.972632,0.978947
0.877895,0.981053,0.996842,0.972632,0.978947
0.896842,0.982105,0.995789,0.970526,0.982105
0.896842,0.982105,0.995789,0.970526,0.982105
0.911579,0.981053,0.994737,0.968421,0.983158
0.911579,0.981053,0.994737,0.968421,0.983158
0.923158,0.981053,0.993684,0.966316,0.985263
0.928421,0.978947,0.992632,0.965263,0.988421
0.928421,0.978947,0.992632,0.965263,0.988421
0.935789,0.980000,0.992632,0.963158,0.988421
0.935789,0.980000,0.992632,0.963158,0.988421
0.937895,0.976842,0.991579,0.961053,0.990526
0.937895,0.976842,0.991579,0.961053,0.990526
0.938947,0.976842,0.990526,0.960000,0.990526
0.938947,0.976842,0.990526,0.960000,0.990526
0.940000,0.973684,0.989474,0.957895,0.989474
0.940000,0.973684,0.989474,0.957895,0.989474
0.938947,0.973684,0.989474,0.955790,0.989474
0.940000,0.973684,0.988421,0.954737,0.988421
0.940000,0.973684,0.988421,0.954737,0.988421
0.937895,0.970526,0.987368,0.953684,0.987368
0.937895,0.970526,0.987368,0.953684,0.987368
0.933684,0.968421,0.986316,0.951579,0.987368
0.933684,0.968421,0.986316,0.951579,0.987368
0.926316,0.967368,0.985263,0.951579,0.984211
0.926316,0.967368,0.985263,0.951579,0.984211
0.918947,0.967368,0.985263,0.950526,0.982105
0.911579,0.967368,0.984211,0.948421,0.978947
0.911579,0.967368,0.984211,0.948421,0.978947
0.903158,0.966316,0.983158,0.946316,0.975789
0.903158,0.966316,0.983158,0.946316,0.975789
0.895789,0.965263,0.982105,0.945263,0.971579
0.895789,0.965263,0.982105,0.945263,0.971579
0.886316,0.964211,0.981053,0.945263,0.967368
0.886316,0.964211,0.981053,0.945263,0.967368
0.873684,0.961053,0.978947,0.943158,0.963158
0.853684,0.958947,0.976842,0.942105,0.960000
0.853684,0.958947,0.976842,0.942105,0.960000
0.821053,0.955790,0.972632,0.940000,0.951579
0.821053,0.955790,0.972632,0.940000,0.951579
0.764211,0.948421,0.965263,0.937895,0.943158
0.764211,0.948421,0.965263,0.937895,0.943158
0.680000,0.944210,0.956842,0.931579,0.928421
0.680000,0.944210,0.956842,0.931579,0.928421
0.588421,0.938947,0.947368,0.920000,0.902105
0.588421,0.938947,0.947368,0.920000,0.902105
0.500000,0.928421,0.933684,0.901053,0.860000
0.500000,0.928421,0.933684,0.901053,0.860000
0.407368,0.912632,0.915789,0.874737,0.802105
0.366316,0.901053,0.906316,0.857895,0.766316
0.366316,0.901053,0.906316,0.857895,0.766316
0.304211,0.876842,0.881053,0.818947,0.688421
0.304211,0.876842,0.881053,0.818947,0.688421
0.257895,0.850526,0.855789,0.775789,0.618947
0.257895,0.850526,0.855789,0.775789,0.618947
0.223158,0.795789,0.812632,0.707368,0.549474
0.195789,0.721053,0.753684,0.603158,0.497895
0.195789,0.721053,0.753684,0.603158,0.497895
0.174737,0.607368,0.668421,0.490526,0.453684
0.174737,0.607368,0.668421,0.490526,0.453684
0.157895,0.510526,0.581053,0.405263,0.414737
0.157895,0.510526,0.581053,0.405263,0.414737
0.145263,0.433684,0.502105,0.345263,0.382105
0.145263,0.433684,0.502105,0.345263,0.382105
0.136842,0.370526,0.426316,0.292632,0.348421
0.127368,0.317895,0.363158,0.251579,0.313684
0.127368,0.317895,0.363158,0.251579,0.313684
0.121053,0.280000,0.312632,0.221053,0.286316
0.121053,0.280000,0.312632,0.221053,0.286316
0.114737,0.248421,0.270526,0.197895,0.264211
0.114737,0.248421,0.270526,0.197895,0.264211
0.111579,0.224211,0.240000,0.178947,0.244211
0.111579,0.224211,0.240000,0.178947,0.244211
0.105263,0.205263,0.216842,0.164211,0.227368
0.100000,0.189474,0.200000,0.152632,0.213684
0.100000,0.189474,0.200000,0.152632,0.213684
0.094737,0.176842,0.185263,0.143158,0.202105
0.094737,0.176842,0.185263,0.143158,0.202105
0.089474,0.165263,0.173684,0.134737,0.191579
0.089474,0.165263,0.173684,0.134737,0.191579
0.085263,0.155789,0.163158,0.128421,0.183158
0.085263,0.155789,0.163158,0.128421,0.183158
0.080000,0.147368,0.154737,0.124211,0.173684
0.075789,0.140000,0.147368,0.120000,0.166316
0.075789,0.140000,0.147368,0.120000,0.166316
0.071579,0.133684,0.140000,0.115789,0.157895
0.071579,0.133684,0.140000,0.115789,0.157895
0.067368,0.127368,0.133684,0.112632,0.150526
0.067368,0.127368,0.133684,0.112632,0.150526
0.064211,0.121053,0.127368,0.110526,0.143158
0.064211,0.121053,0.127368,0.110526,0.143158
0.060000,0.117895,0.123158,0.107368,0.137895
0.057895,0.114737,0.120000,0.105263,0.134737
0.057895,0.114737,0.120000,0.105263,0.134737
0.055789,0.111579,0.117895,0.104211,0.132632
0.055789,0.111579,0.117895,0.104211,0.132632
0.053684,0.109474,0.115789,0.102105,0.130526
0.053684,0.109474,0.115789,0.102105,0.130526
0.051579,0.107368,0.114737,0.101053,0.128421
0.051579,0.107368,0.114737,0.101053,0.128421
0.050526,0.106316,0.112632,0.100000,0.127368
0.049474,0.104211,0.111579,0.098947,0.126316
0.049474,0.104211,0.111579,0.098947,0.126316
0.047368,0.103158,0.111579,0.097895,0.125263
0.047368,0.103158,0.111579,0.097895,0.125263
0.047368,0.102105,0.110526,0.096842,0.124211
0.047368,0.102105,0.110526,0.096842,0.124211
0.046316,0.101053,0.110526,0.096842,0.123158
0.046316,0.101053,0.110526,0.096842,0.123158
0.046316,0.100000,0.110526,0.095789,0.122105
0.044211,0.098947,0.109474,0.094737,0.122105
0.044211,0.098947,0.109474,0.094737,0.122105
0.044211,0.097895,0.108421,0.093684,0.121053
0.044211,0.097895,0.108421,0.093684,0.121053
0.043158,0.096842,0.109474,0.093684,0.120000
0.043158,0.096842,0.109474,0.093684,0.120000
0.043158,0.096842,0.108421,0.092632,0.118947
0.042105,0.095789,0.109474,0.092632,0.118947
0.042105,0.095789,0.109474,0.092632,0.118947
0.042105,0.095789,0.111579,0.091579,0.118947
0.042105,0.095789,0.111579,0.091579,0.118947
0.042105,0.094737,0.113684,0.090526,0.118947
0.042105,0.094737,0.113684,0.090526,0.118947
0.041053,0.094737,0.117895,0.090526,0.120000
0.041053,0.094737,0.117895,0.090526,0.120000
0.040000,0.094737,0.127368,0.091579,0.122105
0.040000,0.094737,0.127368,0.091579,0.122105
0.042105,0.095789,0.146316,0.091579,0.125263
0.042105,0.095789,0.146316,0.091579,0.125263
0.042105,0.095789,0.175789,0.094737,0.132632
0.041053,0.097895,0.222105,0.109474,0.146316
0.041053,0.097895,0.222105,0.109474,0.146316
0.042105,0.101053,0.293684,0.164211,0.172632
0.042105,0.101053,0.293684,0.164211,0.172632
0.042105,0.109474,0.373684,0.248421,0.216842
0.042105,0.109474,0.373684,0.248421,0.216842
0.043158,0.126316,0.463158,0.367368,0.293684
0.043158,0.126316,0.463158,0.367368,0.293684
0.044211,0.156842,0.553684,0.520000,0.402105
0.046316,0.206316,0.636842,0.646316,0.494737
0.046316,0.206316,0.636842,0.646316,0.494737
0.048421,0.273684,0.694737,0.722105,0.562105
0.048421,0.273684,0.694737,0.722105,0.562105
0.049474,0.352632,0.747368,0.780000,0.623158
0.049474,0.352632,0.747368,0.780000,0.623158
0.053684,0.447368,0.795789,0.830526,0.693684
0.053684,0.447368,0.795789,0.830526,0.693684
0.060000,0.560000,0.837895,0.869474,0.751579
0.069474,0.657895,0.864210,0.894737,0.798947
0.069474,0.657895,0.864210,0.894737,0.798947
0.082105,0.729474,0.881053,0.909474,0.827368
0.100000,0.790526,0.900000,0.925263,0.849474
0.100000,0.790526,0.900000,0.925263,0.849474
0.122105,0.841053,0.917895,0.938947,0.869474
0.122105,0.841053,0.917895,0.938947,0.869474
0.151579,0.876842,0.932632,0.952632,0.886316
0.151579,0.876842,0.932632,0.952632,0.886316
0.182105,0.904211,0.944210,0.962105,0.901053
0.182105,0.904211,0.944210,0.962105,0.901053
0.217895,0.924211,0.954737,0.969474,0.911579
0.217895,0.924211,0.954737,0.969474,0.911579
0.262105,0.940000,0.965263,0.975789,0.922105
0.262105,0.940000,0.965263,0.975789,0.922105
0.315789,0.953684,0.972632,0.982105,0.929474
0.315789,0.953684,0.972632,0.982105,0.929474
0.370526,0.964211,0.980000,0.987368,0.937895
0.415789,0.971579,0.985263,0.992632,0.943158
0.415789,0.971579,0.985263,0.992632,0.943158
0.473684,0.978947,0.991579,0.994737,0.945263
0.473684,0.978947,0.991579,0.994737,0.945263
0.548421,0.983158,0.995789,0.996842,0.947368
0.548421,0.983158,0.995789,0.996842,0.947368
0.611579,0.984211,0.997895,0.996842,0.949474
0.611579,0.984211,0.997895,0.996842,0.949474
0.664210,0.983158,0.996842,0.995789,0.950526
0.702105,0.981053,0.996842,0.992632,0.951579
0.702105,0.981053,0.996842,0.992632,0.951579
0.733684,0.978947,0.994737,0.989474,0.953684
0.733684,0.978947,0.994737,0.989474,0.953684
0.765263,0.977895,0.994737,0.987368,0.952632
0.765263,0.977895,0.994737,0.987368,0.952632
0.798947,0.975789,0.991579,0.984211,0.956842
0.798947,0.975789,0.991579,0.984211,0.956842
0.820000,0.974737,0.989474,0.984211,0.960000
0.833684,0.975789,0.990526,0.980000,0.964211
0.853684,0.974737,0.993684,0.977895,0.967368
0.853684,0.974737,0.993684,0.977895,0.967368
0.873684,0.976842,1.000000,0.975789,0.969474
0.873684,0.976842,1.000000,0.975789,0.969474
0.888421,0.976842,1.000000,0.974737,0.973684
0.888421,0.976842,1.000000,0.974737,0.973684
0.898947,0.975789,1.000000,0.972632,0.975789
0.898947,0.975789,1.000000,0.972632,0.975789
0.907368,0.975789,1.000000,0.970526,0.976842
0.915789,0.975789,1.000000,0.968421,0.976842
0.915789,0.975789,1.000000,0.968421,0.976842
0.917895,0.974737,1.000000,0.966316,0.977895
0.917895,0.974737,1.000000,0.966316,0.977895
0.920000,0.974737,1.000000,0.965263,0.977895
0.920000,0.974737,1.000000,0.965263,0.977895
0.921053,0.973684,1.000000,0.964211,0.977895
0.921053,0.973684,1.000000,0.964211,0.977895
0.922105,0.971579,1.000000,0.963158,0.977895
0.916842,0.971579,1.000000,0.962105,0.976842
0.916842,0.971579,1.000000,0.962105,0.976842
0.910526,0.970526,1.000000,0.960000,0.974737
0.910526,0.970526,1.000000,0.960000,0.974737
0.908421,0.969474,1.000000,0.960000,0.974737
0.908421,0.969474,1.000000,0.960000,0.974737
0.903158,0.968421,1.000000,0.960000,0.973684
0.903158,0.968421,1.000000,0.960000,0.973684
0.896842,0.967368,1.000000,0.958947,0.971579
0.896842,0.967368,1.000000,0.958947,0.971579
0.890526,0.966316,1.000000,0.957895,0.969474
0.890526,0.966316,1.000000,0.957895,0.969474
0.884211,0.964211,0.998947,0.956842,0.967368
0.884211,0.964211,0.998947,0.956842,0.967368
0.876842,0.963158,0.996842,0.955790,0.964211
0.876842,0.963158,0.996842,0.955790,0.964211
0.868421,0.964211,0.995789,0.954737,0.960000
0.868421,0.964211,0.995789,0.954737,0.960000
0.836842,0.961053,0.989474,0.951579,0.952632
0.836842,0.961053,0.989474,0.951579,0.952632
0.804211,0.958947,0.985263,0.949474,0.947368
0.804211,0.958947,0.985263,0.949474,0.947368
0.752632,0.953684,0.976842,0.947368,0.941053
0.752632,0.953684,0.976842,0.947368,0.941053
0.684211,0.948421,0.965263,0.941053,0.930526
0.684211,0.948421,0.965263,0.941053,0.930526
0.575790,0.938947,0.955790,0.932632,0.912632
0.575790,0.938947,0.955790,0.932632,0.912632
0.351579,0.887368,0.913684,0.890526,0.817895
0.351579,0.887368,0.913684,0.890526,0.817895
0.282105,0.848421,0.882105,0.857895,0.745263
0.282105,0.848421,0.882105,0.857895,0.745263
0.235789,0.784211,0.840000,0.811579,0.672632
0.235789,0.784211,0.840000,0.811579,0.672632
0.201053,0.702105,0.788421,0.750526,0.604211
0.177895,0.590526,0.717895,0.667368,0.550526
0.177895,0.590526,0.717895,0.667368,0.550526
0.162105,0.494737,0.640000,0.576842,0.503158
0.162105,0.494737,0.640000,0.576842,0.503158
0.148421,0.431579,0.574737,0.500000,0.466316
0.148421,0.431579,0.574737,0.500000,0.466316
0.140000,0.386316,0.516842,0.433684,0.431579
0.140000,0.386316,0.516842,0.433684,0.431579
0.132632,0.347368,0.456842,0.373684,0.397895
0.132632,0.347368,0.456842,0.373684,0.397895
0.125263,0.310526,0.396842,0.316842,0.361053
0.125263,0.310526,0.396842,0.316842,0.361053
0.121053,0.274737,0.341053,0.271579,0.326316
0.121053,0.274737,0.341053,0.271579,0.326316
0.115789,0.245263,0.295789,0.234737,0.295789
0.111579,0.222105,0.257895,0.207368,0.270526
0.108421,0.203158,0.230526,0.186316,0.248421
0.108421,0.203158,0.230526,0.186316,0.248421
0.103158,0.186316,0.209474,0.169474,0.229474
0.097895,0.172632,0.193684,0.155789,0.213684
0.097895,0.172632,0.193684,0.155789,0.213684
0.092632,0.160000,0.181053,0.146316,0.201053
0.092632,0.160000,0.181053,0.146316,0.201053
0.088421,0.150526,0.170526,0.138947,0.190526
0.088421,0.150526,0.170526,0.138947,0.190526
0.085263,0.142105,0.162105,0.132632,0.181053
0.085263,0.142105,0.162105,0.132632,0.181053
0.081053,0.135789,0.153684,0.127368,0.171579
0.078947,0.128421,0.147368,0.122105,0.162105
0.078947,0.128421,0.147368,0.122105,0.162105
0.073684,0.122105,0.140000,0.117895,0.152632
0.073684,0.122105,0.140000,0.117895,0.152632
0.071579,0.116842,0.133684,0.113684,0.144211
0.071579,0.116842,0.133684,0.113684,0.144211
0.068421,0.112632,0.127368,0.109474,0.136842
0.068421,0.112632,0.127368,0.109474,0.136842
0.066316,0.109474,0.122105,0.106316,0.132632
0.064211,0.105263,0.117895,0.102105,0.128421
0.064211,0.105263,0.117895,0.102105,0.128421
0.063158,0.103158,0.114737,0.100000,0.125263
0.063158,0.103158,0.114737,0.100000,0.125263
0.061053,0.101053,0.111579,0.097895,0.123158
0.061053,0.101053,0.111579,0.097895,0.123158
0.058947,0.098947,0.109474,0.096842,0.121053
0.058947,0.098947,0.109474,0.096842,0.121053
0.057895,0.097895,0.108421,0.094737,0.118947
0.057895,0.095789,0.107368,0.093684,0.116842
0.057895,0.095789,0.107368,0.093684,0.116842
0.056842,0.094737,0.106316,0.092632,0.115789
0.056842,0.094737,0.106316,0.092632,0.115789
0.055789,0.093684,0.105263,0.090526,0.114737
0.054737,0.092632,0.104211,0.090526,0.113684
0.054737,0.092632,0.104211,0.090526,0.113684
0.053684,0.091579,0.103158,0.089474,0.112632
0.053684,0.091579,0.103158,0.088421,0.110526
0.053684,0.091579,0.103158,0.088421,0.110526
0.051579,0.089474,0.102105,0.087368,0.110526
0.051579,0.089474,0.102105,0.087368,0.110526
0.051579,0.089474,0.102105,0.086316,0.110526
0.051579,0.089474,0.102105,0.086316,0.110526
0.050526,0.088421,0.101053,0.086316,0.110526
0.050526,0.088421,0.101053,0.086316,0.110526
0.049474,0.088421,0.101053,0.085263,0.110526
0.049474,0.088421,0.100000,0.085263,0.110526
0.049474,0.088421,0.100000,0.085263,0.110526
0.049474,0.087368,0.101053,0.084211,0.111579
0.049474,0.087368,0.101053,0.084211,0.111579
0.049474,0.087368,0.102105,0.084211,0.112632
0.049474,0.087368,0.102105,0.084211,0.112632
0.049474,0.086316,0.104211,0.084211,0.112632
0.049474,0.086316,0.104211,0.084211,0.112632
0.048421,0.087368,0.111579,0.084211,0.115789
0.049474,0.087368,0.131579,0.085263,0.118947
0.049474,0.087368,0.131579,0.085263,0.118947
0.049474,0.088421,0.162105,0.086316,0.124211
0.049474,0.088421,0.162105,0.086316,0.124211
0.051579,0.091579,0.203158,0.094737,0.133684
0.051579,0.091579,0.203158,0.094737,0.133684
0.053684,0.095789,0.266316,0.127368,0.153684
0.053684,0.095789,0.266316,0.127368,0.153684
0.054737,0.108421,0.341053,0.210526,0.192632
0.054737,0.108421,0.341053,0.210526,0.192632
0.057895,0.163158,0.490526,0.451579,0.326316
0.062105,0.227368,0.601053,0.607368,0.422105
0.062105,0.227368,0.601053,0.607368,0.422105
0.069474,0.334737,0.708421,0.736842,0.531579
0.069474,0.334737,0.708421,0.736842,0.531579
0.076842,0.460000,0.778947,0.805263,0.641053
0.076842,0.460000,0.778947,0.805263,0.641053
0.107368,0.690526,0.865263,0.881053,0.793684
0.107368,0.690526,0.865263,0.881053,0.793684
0.136842,0.788421,0.902105,0.910526,0.844211
0.136842,0.788421,0.902105,0.910526,0.844211
0.177895,0.852632,0.926316,0.931579,0.883158
0.177895,0.852632,0.926316,0.931579,0.883158
0.218947,0.888421,0.943158,0.947368,0.909474
0.218947,0.888421,0.943158,0.947368,0.909474
0.284211,0.917895,0.958947,0.960000,0.928421
0.371579,0.942105,0.973684,0.972632,0.940000
0.371579,0.942105,0.973684,0.972632,0.940000
0.461053,0.957895,0.984211,0.980000,0.946316
0.461053,0.957895,0.984211,0.980000,0.946316
0.545263,0.966316,0.990526,0.985263,0.950526
0.545263,0.966316,0.990526,0.985263,0.950526
0.612632,0.971579,0.994737,0.989474,0.952632
0.612632,0.971579,0.994737,0.989474,0.952632
0.665263,0.973684,0.997895,0.989474,0.953684
0.711579,0.976842,1.000000,0.989474,0.955790
0.711579,0.976842,1.000000,0.989474,0.955790
0.749474,0.977895,1.000000,0.989474,0.958947
0.749474,0.977895,1.000000,0.989474,0.958947
0.774737,0.978947,1.000000,0.987368,0.962105
0.774737,0.978947,1.000000,0.987368,0.962105
0.792632,0.980000,1.000000,0.984211,0.963158
0.792632,0.980000,1.000000,0.984211,0.963158
0.810526,0.978947,0.998947,0.982105,0.965263
0.827368,0.978947,0.996842,0.977895,0.967368
0.827368,0.978947,0.996842,0.977895,0.967368
0.843158,0.981053,0.997895,0.976842,0.969474
0.843158,0.981053,0.997895,0.976842,0.969474
0.860000,0.981053,0.998947,0.973684,0.971579
0.870526,0.981053,1.000000,0.972632,0.973684
0.870526,0.981053,1.000000,0.972632,0.973684
0.883158,0.982105,1.000000,0.970526,0.973684
0.883158,0.982105,1.000000,0.970526,0.973684
0.895789,0.980000,1.000000,0.968421,0.975789
0.895789,0.980000,1.000000,0.968421,0.975789
0.904211,0.982105,1.000000,0.967368,0.975789
0.904211,0.982105,1.000000,0.967368,0.975789
0.912632,0.980000,1.000000,0.966316,0.976842
0.912632,0.980000,1.000000,0.966316,0.976842
0.917895,0.980000,1.000000,0.964211,0.980000
0.917895,0.980000,1.000000,0.964211,0.980000
0.924211,0.978947,1.000000,0.962105,0.981053
0.930526,0.977895,1.000000,0.961053,0.982105
0.930526,0.977895,1.000000,0.961053,0.982105
0.933684,0.975789,1.000000,0.961053,0.982105
0.933684,0.975789,1.000000,0.961053,0.982105
0.934737,0.975789,1.000000,0.956842,0.982105
0.934737,0.975789,1.000000,0.956842,0.982105
0.936842,0.973684,1.000000,0.954737,0.982105
0.936842,0.973684,1.000000,0.954737,0.982105
0.934737,0.971579,1.000000,0.953684,0.982105
0.934737,0.969474,0.997895,0.952632,0.982105
0.934737,0.969474,0.997895,0.952632,0.982105
0.932632,0.969474,0.997895,0.950526,0.981053
0.932632,0.969474,0.997895,0.950526,0.981053
0.929474,0.968421,0.995789,0.949474,0.980000
0.929474,0.968421,0.995789,0.949474,0.980000
0.927368,0.966316,0.994737,0.948421,0.980000
0.927368,0.966316,0.994737,0.948421,0.980000
0.925263,0.965263,0.993684,0.947368,0.977895
0.922105,0.965263,0.993684,0.945263,0.975789
0.922105,0.965263,0.993684,0.945263,0.975789
0.915789,0.964211,0.992632,0.945263,0.974737
0.915789,0.964211,0.992632,0.945263,0.974737
0.912632,0.964211,0.990526,0.944210,0.973684
0.906316,0.961053,0.990526,0.944210,0.970526
0.906316,0.961053,0.990526,0.944210,0.970526
0.900000,0.962105,0.989474,0.943158,0.967368
0.900000,0.962105,0.989474,0.943158,0.967368
0.893684,0.962105,0.988421,0.941053,0.962105
0.893684,0.962105,0.988421,0.941053,0.962105
0.883158,0.961053,0.987368,0.938947,0.957895
0.883158,0.961053,0.987368,0.938947,0.957895
0.872632,0.961053,0.986316,0.936842,0.952632
0.872632,0.961053,0.986316,0.936842,0.952632
0.852632,0.957895,0.983158,0.935789,0.947368
0.852632,0.957895,0.983158,0.935789,0.947368
0.817895,0.955790,0.978947,0.933684,0.938947
0.817895,0.955790,0.978947,0.933684,0.938947
0.749474,0.949474,0.969474,0.928421,0.926316
0.656842,0.942105,0.957895,0.916842,0.902105
0.656842,0.942105,0.957895,0.916842,0.902105
0.546316,0.928421,0.945263,0.900000,0.862105
0.546316,0.928421,0.945263,0.900000,0.862105
0.432632,0.906316,0.926316,0.876842,0.798947
0.432632,0.906316,0.926316,0.876842,0.798947
0.340000,0.875789,0.897895,0.840000,0.716842
0.340000,0.875789,0.897895,0.840000,0.716842
0.274737,0.835790,0.863158,0.785263,0.627368
0.230526,0.762105,0.808421,0.706316,0.545263
0.230526,0.762105,0.808421,0.706316,0.545263
0.197895,0.672632,0.729474,0.584211,0.486316
0.197895,0.672632,0.729474,0.584211,0.486316
0.174737,0.552632,0.628421,0.462105,0.445263
0.174737,0.552632,0.628421,0.462105,0.445263
0.160000,0.449474,0.533684,0.380000,0.406316
0.160000,0.449474,0.533684,0.380000,0.406316
0.148421,0.376842,0.449474,0.314737,0.368421
0.128421,0.278947,0.323158,0.230526,0.298947
0.128421,0.278947,0.323158,0.230526,0.298947
0.120000,0.248421,0.281053,0.205263,0.274737
0.120000,0.248421,0.281053,0.205263,0.274737
0.112632,0.225263,0.248421,0.186316,0.252632
0.112632,0.225263,0.248421,0.186316,0.252632
0.106316,0.205263,0.225263,0.171579,0.234737
0.106316,0.205263,0.225263,0.171579,0.234737
0.100000,0.190526,0.208421,0.158947,0.220000
0.100000,0.190526,0.208421,0.158947,0.220000
0.093684,0.177895,0.194737,0.149474,0.206316
0.093684,0.177895,0.194737,0.149474,0.206316
0.088421,0.167368,0.184211,0.141053,0.195789
0.088421,0.167368,0.184211,0.141053,0.195789
0.083158,0.158947,0.173684,0.134737,0.186316
0.083158,0.158947,0.173684,0.134737,0.186316
0.078947,0.149474,0.165263,0.129474,0.178947
0.073684,0.143158,0.156842,0.125263,0.170526
0.073684,0.143158,0.156842,0.125263,0.170526
0.070526,0.136842,0.149474,0.121053,0.163158
0.070526,0.136842,0.149474,0.121053,0.163158
0.066316,0.130526,0.143158,0.117895,0.155789
0.066316,0.130526,0.143158,0.117895,0.155789
0.063158,0.126316,0.136842,0.114737,0.149474
0.063158,0.126316,0.136842,0.114737,0.149474
0.060000,0.122105,0.131579,0.111579,0.143158
0.056842,0.116842,0.126316,0.109474,0.137895
0.056842,0.116842,0.126316,0.109474,0.137895
0.054737,0.112632,0.121053,0.106316,0.133684
0.054737,0.112632,0.121053,0.106316,0.133684
0.052632,0.109474,0.117895,0.105263,0.130526
0.052632,0.109474,0.117895,0.105263,0.130526
0.050526,0.106316,0.114737,0.104211,0.128421
0.050526,0.106316,0.114737,0.104211,0.128421
0.050526,0.105263,0.112632,0.102105,0.126316
0.047368,0.103158,0.111579,0.101053,0.125263
0.047368,0.101053,0.109474,0.100000,0.123158
0.047368,0.101053,0.109474,0.100000,0.123158
0.045263,0.098947,0.108421,0.098947,0.122105
0.045263,0.098947,0.108421,0.098947,0.122105
0.045263,0.097895,0.107368,0.097895,0.121053
0.045263,0.097895,0.107368,0.097895,0.121053
0.044211,0.096842,0.106316,0.096842,0.120000
0.044211,0.096842,0.106316,0.096842,0.120000
0.043158,0.095789,0.106316,0.096842,0.118947
0.043158,0.095789,0.106316,0.096842,0.118947
0.043158,0.095789,0.105263,0.094737,0.117895
0.043158,0.095789,0.105263,0.094737,0.117895
0.042105,0.094737,0.104211,0.093684,0.116842
0.042105,0.094737,0.104211,0.093684,0.116842
0.042105,0.093684,0.104211,0.093684,0.116842
0.042105,0.093684,0.104211,0.093684,0.116842
0.041053,0.092632,0.103158,0.092632,0.115789
0.041053,0.092632,0.103158,0.092632,0.115789
0.040000,0.091579,0.102105,0.091579,0.114737
0.040000,0.091579,0.102105,0.090526,0.114737
0.040000,0.091579,0.102105,0.090526,0.114737
0.040000,0.091579,0.102105,0.090526,0.114737
0.040000,0.091579,0.102105,0.090526,0.114737
0.038947,0.090526,0.102105,0.089474,0.113684
0.038947,0.090526,0.102105,0.089474,0.113684
0.038947,0.090526,0.102105,0.088421,0.113684
0.038947,0.090526,0.102105,0.088421,0.113684
0.037895,0.089474,0.102105,0.088421,0.113684
0.037895,0.089474,0.102105,0.087368,0.113684
0.037895,0.089474,0.102105,0.087368,0.113684
0.037895,0.088421,0.104211,0.087368,0.114737
0.037895,0.088421,0.104211,0.087368,0.114737
0.038947,0.088421,0.109474,0.087368,0.115789
0.038947,0.088421,0.109474,0.087368,0.115789
0.040000,0.088421,0.122105,0.087368,0.117895
0.042105,0.089474,0.151579,0.087368,0.123158
0.045263,0.091579,0.204211,0.089474,0.132632
0.045263,0.091579,0.204211,0.089474,0.132632
0.048421,0.094737,0.283158,0.101053,0.151579
0.048421,0.094737,0.283158,0.101053,0.151579
0.050526,0.102105,0.373684,0.151579,0.189474
0.050526,0.102105,0.373684,0.151579,0.189474
0.053684,0.116842,0.469474,0.260000,0.250526
0.053684,0.116842,0.469474,0.260000,0.250526
0.057895,0.145263,0.582105,0.410526,0.338947
0.057895,0.145263,0.582105,0.410526,0.338947
0.061053,0.197895,0.686316,0.577895,0.436842
0.061053,0.197895,0.686316,0.577895,0.436842
0.066316,0.278947,0.758947,0.688421,0.529474
0.066316,0.278947,0.758947,0.688421,0.529474
0.073684,0.381053,0.809474,0.764211,0.623158
0.073684,0.381053,0.809474,0.764211,0.623158
0.082105,0.496842,0.846316,0.818947,0.703158
0.082105,0.496842,0.846316,0.818947,0.703158
0.090526,0.594737,0.875789,0.860000,0.765263
0.102105,0.683158,0.903158,0.893684,0.810526
0.102105,0.683158,0.903158,0.893684,0.810526
0.120000,0.762105,0.925263,0.921053,0.851579
0.120000,0.762105,0.925263,0.921053,0.851579
0.143158,0.822105,0.941053,0.938947,0.880000
0.143158,0.822105,0.941053,0.938947,0.880000
0.176842,0.865263,0.952632,0.951579,0.900000
0.176842,0.865263,0.952632,0.951579,0.900000
0.217895,0.895789,0.963158,0.962105,0.914737
0.255789,0.917895,0.972632,0.969474,0.925263
0.255789,0.917895,0.972632,0.969474,0.925263
0.276842,0.927368,0.976842,0.972632,0.928421
0.276842,0.927368,0.976842,0.972632,0.928421
0.322105,0.941053,0.983158,0.975789,0.934737
0.322105,0.941053,0.983158,0.975789,0.934737
0.381053,0.954737,0.990526,0.978947,0.937895
0.460000,0.964211,0.994737,0.982105,0.941053
0.460000,0.964211,0.994737,0.982105,0.941053
0.535789,0.967368,0.996842,0.984211,0.945263
0.604211,0.969474,0.997895,0.986316,0.949474
0.604211,0.969474,0.997895,0.986316,0.949474
0.661053,0.969474,0.996842,0.985263,0.953684
0.661053,0.969474,0.996842,0.985263,0.953684
0.709474,0.969474,0.995789,0.982105,0.955790
0.709474,0.969474,0.995789,0.982105,0.955790
0.758947,0.970526,0.994737,0.980000,0.958947
0.758947,0.970526,0.994737,0.980000,0.958947
0.790526,0.971579,0.993684,0.975789,0.963158
0.821053,0.972632,0.997895,0.974737,0.966316
0.821053,0.972632,0.997895,0.974737,0.966316
0.846316,0.974737,1.000000,0.971579,0.968421
0.846316,0.974737,1.000000,0.971579,0.968421
0.867368,0.975789,1.000000,0.968421,0.969474
0.867368,0.975789,1.000000,0.968421,0.969474
0.886316,0.974737,1.000000,0.968421,0.971579
0.886316,0.974737,1.000000,0.968421,0.971579
0.903158,0.974737,1.000000,0.965263,0.972632
0.913684,0.975789,1.000000,0.963158,0.972632
0.913684,0.975789,1.000000,0.963158,0.972632
0.922105,0.973684,1.000000,0.962105,0.973684
0.922105,0.973684,1.000000,0.962105,0.973684
0.929474,0.973684,1.000000,0.960000,0.973684
0.929474,0.973684,1.000000,0.960000,0.973684
0.936842,0.973684,1.000000,0.957895,0.974737
0.936842,0.973684,1.000000,0.957895,0.974737
0.940000,0.972632,1.000000,0.956842,0.974737
0.940000,0.972632,1.000000,0.956842,0.974737
0.944210,0.971579,1.000000,0.953684,0.975789
0.944210,0.971579,1.000000,0.953684,0.975789
0.945263,0.969474,1.000000,0.952632,0.975789
0.944210,0.969474,1.000000,0.951579,0.975789
0.944210,0.969474,1.000000,0.951579,0.975789
0.942105,0.969474,1.000000,0.950526,0.975789
0.942105,0.969474,1.000000,0.950526,0.975789
0.938947,0.968421,1.000000,0.949474,0.975789
0.932632,0.966316,1.000000,0.948421,0.974737
0.932632,0.966316,1.000000,0.948421,0.974737
0.928421,0.966316,1.000000,0.947368,0.972632
0.928421,0.966316,1.000000,0.947368,0.972632
0.923158,0.964211,1.000000,0.945263,0.971579
0.923158,0.964211,1.000000,0.945263,0.971579
0.921053,0.962105,1.000000,0.945263,0.970526
0.921053,0.962105,1.000000,0.945263,0.970526
0.916842,0.961053,0.997895,0.944210,0.969474
0.911579,0.960000,0.997895,0.943158,0.966316
0.911579,0.960000,0.997895,0.943158,0.966316
0.907368,0.957895,0.997895,0.943158,0.963158
0.907368,0.957895,0.997895,0.943158,0.963158
0.903158,0.956842,0.995789,0.941053,0.958947
0.903158,0.956842,0.995789,0.941053,0.958947
0.893684,0.955790,0.993684,0.941053,0.956842
0.893684,0.955790,0.993684,0.941053,0.956842
0.872632,0.954737,0.992632,0.940000,0.951579
0.850526,0.950526,0.990526,0.938947,0.947368
0.850526,0.950526,0.990526,0.938947,0.947368
0.826316,0.948421,0.987368,0.936842,0.942105
0.826316,0.948421,0.987368,0.936842,0.942105
0.793684,0.944210,0.982105,0.935789,0.933684
0.793684,0.944210,0.982105,0.935789,0.933684
0.747368,0.936842,0.970526,0.931579,0.924211
0.747368,0.936842,0.970526,0.931579,0.924211
0.683158,0.926316,0.960000,0.920000,0.907368
0.683158,0.926316,0.960000,0.920000,0.907368
0.566316,0.909474,0.947368,0.902105,0.875789
0.566316,0.909474,0.947368,0.902105,0.875789
0.446316,0.885263,0.929474,0.881053,0.828421
0.368421,0.861053,0.911579,0.853684,0.771579
0.368421,0.861053,0.911579,0.853684,0.771579
0.304211,0.823158,0.886316,0.809474,0.700000
0.304211,0.823158,0.886316,0.809474,0.700000
0.253684,0.757895,0.842105,0.736842,0.615789
0.253684,0.757895,0.842105,0.736842,0.615789
0.215789,0.660000,0.781053,0.642105,0.552632
0.189474,0.548421,0.689474,0.527368,0.496842
0.189474,0.548421,0.689474,0.527368,0.496842
0.172632,0.462105,0.587368,0.423158,0.442105
0.172632,0.462105,0.587368,0.423158,0.442105
0.155789,0.392632,0.491579,0.345263,0.390526
0.155789,0.392632,0.491579,0.345263,0.390526
0.143158,0.335790,0.410526,0.288421,0.347368
0.143158,0.335790,0.410526,0.288421,0.347368
0.133684,0.291579,0.345263,0.246316,0.310526
0.123158,0.255789,0.293684,0.213684,0.282105
0.123158,0.255789,0.293684,0.213684,0.282105
0.115789,0.228421,0.255789,0.191579,0.256842
0.115789,0.228421,0.255789,0.191579,0.256842
0.107368,0.206316,0.228421,0.174737,0.237895
0.107368,0.206316,0.228421,0.174737,0.237895
0.101053,0.191579,0.210526,0.160000,0.221053
0.101053,0.191579,0.210526,0.160000,0.221053
0.095789,0.177895,0.195789,0.148421,0.207368
0.089474,0.168421,0.184211,0.140000,0.195789
0.089474,0.168421,0.184211,0.140000,0.195789
0.084211,0.160000,0.174737,0.134737,0.187368
0.084211,0.160000,0.174737,0.134737,0.187368
0.078947,0.152632,0.166316,0.129474,0.178947
0.078947,0.152632,0.166316,0.129474,0.178947
0.072632,0.147368,0.157895,0.125263,0.171579
0.072632,0.147368,0.157895,0.125263,0.171579
0.069474,0.141053,0.151579,0.121053,0.164211
0.065263,0.135789,0.146316,0.117895,0.158947
0.065263,0.135789,0.146316,0.117895,0.158947
0.063158,0.131579,0.142105,0.115789,0.154737
0.063158,0.131579,0.142105,0.115789,0.154737
0.060000,0.128421,0.138947,0.113684,0.151579
0.060000,0.128421,0.138947,0.113684,0.151579
0.057895,0.126316,0.136842,0.111579,0.147368
0.057895,0.126316,0.136842,0.111579,0.147368
0.056842,0.123158,0.134737,0.109474,0.144211
0.053684,0.121053,0.132632,0.108421,0.142105
0.053684,0.121053,0.132632,0.108421,0.142105
0.053684,0.118947,0.131579,0.107368,0.140000
0.053684,0.118947,0.131579,0.107368,0.140000
0.052632,0.116842,0.129474,0.106316,0.138947
0.052632,0.116842,0.129474,0.106316,0.138947
0.050526,0.115789,0.128421,0.105263,0.136842
0.050526,0.115789,0.128421,0.105263,0.136842
0.049474,0.114737,0.127368,0.103158,0.135789
0.048421,0.112632,0.125263,0.102105,0.133684
0.048421,0.112632,0.125263,0.102105,0.133684
0.047368,0.111579,0.124211,0.101053,0.133684
0.047368,0.111579,0.124211,0.101053,0.133684
0.047368,0.109474,0.123158,0.100000,0.131579
0.047368,0.109474,0.123158,0.100000,0.131579
0.045263,0.109474,0.123158,0.100000,0.130526
0.045263,0.109474,0.123158,0.100000,0.130526
0.045263,0.108421,0.122105,0.097895,0.129474
0.044211,0.107368,0.121053,0.097895,0.128421
0.044211,0.107368,0.121053,0.097895,0.128421
0.043158,0.105263,0.120000,0.096842,0.128421
0.043158,0.105263,0.120000,0.096842,0.128421
0.042105,0.105263,0.120000,0.096842,0.127368
0.042105,0.105263,0.120000,0.096842,0.127368
0.042105,0.103158,0.118947,0.095789,0.126316
0.042105,0.103158,0.118947,0.095789,0.126316
0.041053,0.103158,0.118947,0.094737,0.126316
0.041053,0.102105,0.117895,0.094737,0.124211
0.040000,0.101053,0.117895,0.093684,0.124211
0.040000,0.101053,0.117895,0.093684,0.124211
0.040000,0.101053,0.116842,0.092632,0.124211
0.040000,0.101053,0.116842,0.092632,0.124211
0.040000,0.101053,0.115789,0.092632,0.123158
0.040000,0.101053,0.115789,0.092632,0.123158
0.038947,0.100000,0.115789,0.092632,0.123158
0.038947,0.100000,0.115789,0.092632,0.123158
0.037895,0.098947,0.115789,0.091579,0.123158
0.037895,0.097895,0.117895,0.090526,0.123158
0.037895,0.097895,0.117895,0.090526,0.123158
0.037895,0.097895,0.121053,0.090526,0.124211
0.037895,0.097895,0.121053,0.090526,0.124211
0.037895,0.097895,0.128421,0.090526,0.124211
0.037895,0.097895,0.128421,0.090526,0.124211
0.038947,0.097895,0.147368,0.091579,0.127368
0.038947,0.097895,0.147368,0.091579,0.127368
0.040000,0.097895,0.178947,0.095789,0.132632
0.040000,0.097895,0.196842,0.102105,0.136842
0.040000,0.097895,0.196842,0.102105,0.136842
0.040000,0.098947,0.228421,0.133684,0.147368
0.040000,0.098947,0.228421,0.133684,0.147368
0.040000,0.103158,0.281053,0.203158,0.163158
0.040000,0.103158,0.281053,0.203158,0.163158
0.041053,0.112632,0.396842,0.346316,0.210526
0.041053,0.112632,0.396842,0.346316,0.210526
0.043158,0.141053,0.521053,0.531579,0.307368
0.046316,0.189474,0.610526,0.657895,0.413684
0.046316,0.189474,0.610526,0.657895,0.413684
0.049474,0.252632,0.676842,0.731579,0.502105
0.049474,0.252632,0.676842,0.731579,0.502105
0.053684,0.337895,0.743158,0.788421,0.583158
0.053684,0.337895,0.743158,0.788421,0.583158
0.058947,0.451579,0.800000,0.833684,0.661053
0.058947,0.451579,0.800000,0.833684,0.661053
0.066316,0.573684,0.838947,0.863158,0.716842
0.084211,0.748421,0.890526,0.907368,0.786316
0.084211,0.748421,0.890526,0.907368,0.786316
0.100000,0.817895,0.913684,0.926316,0.817895
0.100000,0.817895,0.913684,0.926316,0.817895
0.118947,0.861053,0.927368,0.938947,0.838947
0.118947,0.861053,0.927368,0.938947,0.838947
0.142105,0.888421,0.935789,0.948421,0.853684
0.168421,0.909474,0.945263,0.956842,0.870526
0.168421,0.909474,0.945263,0.956842,0.870526
0.197895,0.928421,0.954737,0.967368,0.887368
0.197895,0.928421,0.954737,0.967368,0.887368
0.240000,0.946316,0.964211,0.975789,0.901053
0.240000,0.946316,0.964211,0.975789,0.901053
0.280000,0.960000,0.972632,0.982105,0.910526
0.280000,0.960000,0.972632,0.982105,0.910526
0.311579,0.967368,0.975789,0.984211,0.914737
0.353684,0.973684,0.980000,0.988421,0.918947
0.353684,0.973684,0.980000,0.988421,0.918947
0.403158,0.978947,0.982105,0.988421,0.918947
0.403158,0.978947,0.982105,0.988421,0.918947
0.454737,0.981053,0.985263,0.990526,0.920000
0.454737,0.981053,0.985263,0.990526,0.920000
0.502105,0.982105,0.987368,0.991579,0.923158
0.502105,0.982105,0.987368,0.991579,0.923158
0.542105,0.982105,0.988421,0.989474,0.923158
0.577895,0.981053,0.988421,0.988421,0.925263
0.577895,0.981053,0.988421,0.988421,0.925263
0.615789,0.980000,0.988421,0.986316,0.927368
0.615789,0.980000,0.988421,0.986316,0.927368
0.657895,0.978947,0.987368,0.983158,0.929474
0.657895,0.978947,0.987368,0.983158,0.929474
0.676842,0.978947,0.988421,0.980000,0.930526
0.676842,0.978947,0.988421,0.980000,0.930526
0.690526,0.981053,0.989474,0.976842,0.933684
0.720000,0.981053,0.991579,0.974737,0.937895
0.750526,0.982105,0.993684,0.972632,0.943158
0.750526,0.982105,0.993684,0.972632,0.943158
0.780000,0.981053,0.995789,0.971579,0.947368
0.780000,0.981053,0.995789,0.971579,0.947368
0.802105,0.983158,0.998947,0.972632,0.951579
0.802105,0.983158,0.998947,0.972632,0.951579
0.824211,0.982105,1.000000,0.970526,0.953684
0.824211,0.982105,1.000000,0.970526,0.953684
0.846316,0.982105,1.000000,0.969474,0.955790
0.846316,0.982105,1.000000,0.969474,0.955790
0.863158,0.980000,1.000000,0.968421,0.958947
0.863158,0.980000,1.000000,0.968421,0.958947
0.875789,0.980000,1.000000,0.968421,0.960000
0.875789,0.980000,1.000000,0.968421,0.960000
0.890526,0.980000,1.000000,0.967368,0.962105
0.890526,0.980000,1.000000,0.967368,0.962105
0.900000,0.976842,1.000000,0.965263,0.963158
0.900000,0.976842,1.000000,0.965263,0.963158
0.906316,0.977895,1.000000,0.966316,0.964211
0.910526,0.975789,1.000000,0.963158,0.965263
0.910526,0.975789,1.000000,0.963158,0.965263
0.915789,0.975789,1.000000,0.962105,0.966316
0.915789,0.975789,1.000000,0.962105,0.966316
0.916842,0.974737,1.000000,0.961053,0.967368
0.916842,0.974737,1.000000,0.961053,0.967368
0.917895,0.973684,1.000000,0.958947,0.967368
0.917895,0.973684,1.000000,0.958947,0.967368
0.916842,0.972632,1.000000,0.957895,0.966316
0.910526,0.971579,1.000000,0.955790,0.966316
0.910526,0.971579,1.000000,0.955790,0.966316
0.903158,0.969474,1.000000,0.954737,0.965263
0.903158,0.969474,1.000000,0.954737,0.965263
0.894737,0.970526,0.997895,0.953684,0.963158
0.894737,0.970526,0.997895,0.953684,0.963158
0.887368,0.968421,0.996842,0.952632,0.958947
0.878947,0.968421,0.995789,0.951579,0.955790
0.869474,0.966316,0.994737,0.950526,0.951579
0.869474,0.966316,0.994737,0.950526,0.951579
0.861053,0.966316,0.993684,0.949474,0.947368
0.861053,0.966316,0.993684,0.949474,0.947368
0.849474,0.966316,0.991579,0.948421,0.944210
0.849474,0.966316,0.991579,0.948421,0.944210
0.831579,0.963158,0.989474,0.945263,0.940000
0.831579,0.963158,0.989474,0.945263,0.940000
0.804211,0.961053,0.985263,0.943158,0.934737
0.804211,0.961053,0.985263,0.943158,0.934737
0.757895,0.957895,0.977895,0.938947,0.928421
0.757895,0.957895,0.977895,0.938947,0.928421
0.709474,0.952632,0.967368,0.935789,0.918947
0.709474,0.952632,0.967368,0.935789,0.918947
0.667368,0.947368,0.954737,0.929474,0.904211
0.667368,0.947368,0.954737,0.929474,0.904211
0.624211,0.941053,0.943158,0.917895,0.878947
0.624211,0.941053,0.943158,0.917895,0.878947
0.556842,0.930526,0.930526,0.903158,0.842105
0.461053,0.912632,0.910526,0.882105,0.787368
0.461053,0.912632,0.910526,0.882105,0.787368
0.371579,0.882105,0.881053,0.853684,0.721053
0.371579,0.882105,0.881053,0.853684,0.721053
0.306316,0.845263,0.844211,0.816842,0.654737
0.306316,0.845263,0.844211,0.816842,0.654737
0.257895,0.800000,0.796842,0.765263,0.590526
0.257895,0.800000,0.796842,0.765263,0.590526
0.220000,0.718947,0.727368,0.677895,0.518947
0.191579,0.614737,0.633684,0.560000,0.458947
0.191579,0.614737,0.633684,0.560000,0.458947
0.171579,0.502105,0.546316,0.457895,0.418947
0.171579,0.502105,0.546316,0.457895,0.418947
0.156842,0.422105,0.471579,0.381053,0.380000
0.146316,0.360000,0.398947,0.317895,0.338947
0.146316,0.360000,0.398947,0.317895,0.338947
0.136842,0.308421,0.337895,0.267368,0.305263
0.136842,0.308421,0.337895,0.267368,0.305263
0.128421,0.268421,0.287368,0.228421,0.278947
0.120000,0.235789,0.249474,0.201053,0.255789
0.120000,0.235789,0.249474,0.201053,0.255789
0.112632,0.212632,0.224211,0.180000,0.237895
0.112632,0.212632,0.224211,0.180000,0.237895
0.106316,0.195789,0.205263,0.165263,0.221053
0.106316,0.195789,0.205263,0.165263,0.221053
0.100000,0.180000,0.190526,0.152632,0.207368
0.100000,0.180000,0.190526,0.152632,0.207368
0.093684,0.169474,0.177895,0.144211,0.196842
0.093684,0.169474,0.177895,0.144211,0.196842
0.087368,0.158947,0.167368,0.136842,0.186316
0.087368,0.158947,0.167368,0.136842,0.186316
0.082105,0.150526,0.157895,0.130526,0.175789
0.082105,0.150526,0.157895,0.130526,0.175789
0.077895,0.142105,0.147368,0.125263,0.166316
0.077895,0.142105,0.147368,0.125263,0.166316
0.073684,0.135789,0.140000,0.121053,0.156842
0.073684,0.135789,0.140000,0.121053,0.156842
0.069474,0.127368,0.131579,0.115789,0.148421
0.066316,0.121053,0.124211,0.111579,0.138947
0.066316,0.121053,0.124211,0.111579,0.138947
0.062105,0.114737,0.117895,0.108421,0.132632
0.062105,0.114737,0.117895,0.108421,0.132632
0.060000,0.111579,0.112632,0.105263,0.127368
0.060000,0.111579,0.112632,0.105263,0.127368
0.057895,0.108421,0.109474,0.102105,0.124211
0.057895,0.108421,0.109474,0.102105,0.124211
0.056842,0.106316,0.107368,0.100000,0.122105
0.054737,0.104211,0.105263,0.097895,0.120000
0.054737,0.104211,0.105263,0.097895,0.120000
0.053684,0.102105,0.103158,0.097895,0.118947
0.053684,0.102105,0.103158,0.097895,0.118947
0.052632,0.101053,0.101053,0.095789,0.116842
0.052632,0.101053,0.101053,0.095789,0.116842
0.051579,0.100000,0.101053,0.094737,0.114737
0.050526,0.098947,0.098947,0.093684,0.113684
0.048421,0.096842,0.098947,0.092632,0.112632
0.048421,0.096842,0.098947,0.092632,0.112632
0.048421,0.096842,0.097895,0.092632,0.112632
0.048421,0.096842,0.097895,0.092632,0.112632
0.047368,0.096842,0.097895,0.090526,0.111579
0.047368,0.096842,0.097895,0.090526,0.111579
0.046316,0.095789,0.096842,0.090526,0.110526
0.046316,0.095789,0.096842,0.090526,0.110526
0.046316,0.095789,0.096842,0.089474,0.110526
0.046316,0.095789,0.096842,0.089474,0.110526
0.045263,0.094737,0.096842,0.088421,0.108421
0.045263,0.094737,0.096842,0.088421,0.108421
0.045263,0.093684,0.095789,0.087368,0.108421
0.045263,0.093684,0.095789,0.087368,0.108421
0.044211,0.092632,0.095789,0.086316,0.108421
0.044211,0.092632,0.095789,0.086316,0.108421
0.043158,0.092632,0.095789,0.086316,0.107368
0.043158,0.092632,0.095789,0.086316,0.107368
0.043158,0.092632,0.095789,0.085263,0.107368
0.042105,0.092632,0.095789,0.085263,0.107368
0.042105,0.092632,0.095789,0.085263,0.107368
0.042105,0.091579,0.095789,0.084211,0.107368
0.042105,0.091579,0.095789,0.084211,0.107368
0.041053,0.090526,0.095789,0.083158,0.107368
0.041053,0.090526,0.095789,0.083158,0.107368
0.041053,0.089474,0.095789,0.083158,0.108421
0.041053,0.089474,0.095789,0.083158,0.108421
0.041053,0.090526,0.096842,0.082105,0.108421
0.040000,0.089474,0.098947,0.082105,0.109474
0.042105,0.090526,0.106316,0.082105,0.111579
0.042105,0.090526,0.106316,0.082105,0.111579
0.042105,0.091579,0.118947,0.082105,0.114737
0.042105,0.091579,0.118947,0.082105,0.114737
0.043158,0.092632,0.144211,0.082105,0.117895
0.043158,0.092632,0.144211,0.082105,0.117895
0.043158,0.093684,0.177895,0.084211,0.124211
0.043158,0.093684,0.177895,0.084211,0.124211
0.045263,0.098947,0.231579,0.091579,0.133684
0.047368,0.112632,0.298947,0.115789,0.150526
0.047368,0.112632,0.298947,0.115789,0.150526
0.050526,0.141053,0.373684,0.170526,0.176842
0.050526,0.141053,0.373684,0.170526,0.176842
0.053684,0.186316,0.445263,0.246316,0.215789
0.053684,0.186316,0.445263,0.246316,0.215789
0.056842,0.251579,0.520000,0.353684,0.267368
0.056842,0.251579,0.520000,0.353684,0.267368
0.058947,0.349474,0.602105,0.489474,0.322105
0.064211,0.462105,0.670526,0.607368,0.393684
0.064211,0.462105,0.670526,0.607368,0.393684
0.069474,0.562105,0.722105,0.690526,0.472632
0.069474,0.562105,0.722105,0.690526,0.472632
0.075789,0.652632,0.769474,0.752632,0.549474
0.075789,0.652632,0.769474,0.752632,0.549474
0.082105,0.737895,0.814737,0.804211,0.626316
0.082105,0.737895,0.814737,0.804211,0.626316
0.091579,0.796842,0.850526,0.846316,0.697895
0.104211,0.838947,0.875789,0.876842,0.754737
0.104211,0.838947,0.875789,0.876842,0.754737
0.121053,0.870526,0.896842,0.900000,0.796842
0.121053,0.870526,0.896842,0.900000,0.796842
0.147368,0.900000,0.916842,0.921053,0.835790
0.147368,0.900000,0.916842,0.921053,0.835790
0.182105,0.928421,0.936842,0.937895,0.866316
0.182105,0.928421,0.936842,0.937895,0.866316
0.229474,0.948421,0.949474,0.950526,0.884211
0.288421,0.962105,0.958947,0.958947,0.894737
0.288421,0.962105,0.958947,0.958947,0.894737
0.364211,0.973684,0.967368,0.966316,0.905263
0.364211,0.973684,0.967368,0.966316,0.905263
0.453684,0.980000,0.974737,0.973684,0.916842
0.453684,0.980000,0.974737,0.973684,0.916842
0.528421,0.983158,0.978947,0.976842,0.924211
0.528421,0.983158,0.978947,0.976842,0.924211
0.603158,0.984211,0.982105,0.980000,0.929474
0.656842,0.983158,0.983158,0.980000,0.932632
0.656842,0.983158,0.983158,0.980000,0.932632
0.700000,0.982105,0.984211,0.982105,0.936842
0.700000,0.982105,0.984211,0.982105,0.936842
0.732632,0.980000,0.986316,0.982105,0.940000
0.732632,0.980000,0.986316,0.982105,0.940000
0.761053,0.978947,0.987368,0.980000,0.943158
0.761053,0.978947,0.987368,0.980000,0.943158
0.786316,0.977895,0.987368,0.980000,0.945263
0.815789,0.977895,0.988421,0.975789,0.948421
0.815789,0.977895,0.988421,0.975789,0.948421
0.848421,0.976842,0.990526,0.974737,0.951579
0.848421,0.976842,0.990526,0.974737,0.951579
0.873684,0.976842,0.991579,0.974737,0.955790
0.873684,0.976842,0.991579,0.974737,0.955790
0.893684,0.976842,0.992632,0.971579,0.956842
0.893684,0.976842,0.992632,0.971579,0.956842
0.909474,0.977895,0.992632,0.969474,0.957895
0.921053,0.978947,0.993684,0.967368,0.961053
0.921053,0.978947,0.993684,0.967368,0.961053
0.928421,0.977895,0.994737,0.966316,0.963158
0.928421,0.977895,0.994737,0.966316,0.963158
0.933684,0.977895,0.995789,0.965263,0.964211
0.933684,0.977895,0.995789,0.965263,0.964211
0.940000,0.978947,0.995789,0.963158,0.965263
0.945263,0.978947,0.996842,0.962105,0.966316
0.945263,0.978947,0.996842,0.962105,0.966316
0.947368,0.978947,0.995789,0.961053,0.967368
0.947368,0.978947,0.995789,0.961053,0.967368
0.949474,0.978947,0.994737,0.961053,0.966316
0.949474,0.978947,0.994737,0.961053,0.966316
0.950526,0.976842,0.992632,0.960000,0.966316
0.950526,0.976842,0.992632,0.960000,0.966316
0.948421,0.976842,0.993684,0.958947,0.966316
0.948421,0.976842,0.993684,0.958947,0.966316
0.949474,0.975789,0.991579,0.957895,0.965263
0.949474,0.975789,0.991579,0.957895,0.965263
0.946316,0.974737,0.990526,0.956842,0.964211
0.945263,0.975789,0.989474,0.955790,0.963158
0.945263,0.975789,0.989474,0.955790,0.963158
0.941053,0.971579,0.987368,0.954737,0.962105
0.941053,0.971579,0.987368,0.954737,0.962105
0.937895,0.971579,0.987368,0.953684,0.960000
0.937895,0.971579,0.987368,0.953684,0.960000
0.934737,0.971579,0.986316,0.952632,0.958947
0.934737,0.971579,0.986316,0.952632,0.958947
0.931579,0.968421,0.985263,0.952632,0.957895
0.928421,0.969474,0.985263,0.951579,0.955790
0.923158,0.967368,0.983158,0.950526,0.953684
0.923158,0.967368,0.983158,0.950526,0.953684
0.916842,0.966316,0.983158,0.950526,0.950526
0.916842,0.966316,0.983158,0.950526,0.950526
0.913684,0.967368,0.982105,0.947368,0.948421
0.913684,0.967368,0.982105,0.947368,0.948421
0.906316,0.966316,0.981053,0.947368,0.945263
0.897895,0.964211,0.980000,0.945263,0.943158
0.897895,0.964211,0.980000,0.945263,0.943158
0.882105,0.963158,0.976842,0.944210,0.938947
0.882105,0.963158,0.976842,0.944210,0.938947
0.854737,0.960000,0.974737,0.942105,0.934737
0.810526,0.954737,0.967368,0.937895,0.928421
0.810526,0.954737,0.967368,0.937895,0.928421
0.737895,0.949474,0.961053,0.933684,0.920000
0.737895,0.949474,0.961053,0.933684,0.920000
0.630526,0.942105,0.950526,0.924211,0.904211
0.630526,0.942105,0.950526,0.924211,0.904211
0.517895,0.933684,0.935789,0.908421,0.876842
0.517895,0.933684,0.935789,0.908421,0.876842
0.431579,0.920000,0.918947,0.885263,0.832632
0.431579,0.920000,0.918947,0.885263,0.832632
0.353684,0.897895,0.892632,0.856842,0.769474
0.353684,0.897895,0.892632,0.856842,0.769474
0.291579,0.868421,0.854737,0.818947,0.697895
0.242105,0.832632,0.803158,0.766316,0.617895
0.242105,0.832632,0.803158,0.766316,0.617895
0.206316,0.784211,0.733684,0.685263,0.534737
0.206316,0.784211,0.733684,0.685263,0.534737
0.182105,0.687368,0.636842,0.575790,0.469474
0.182105,0.687368,0.636842,0.575790,0.469474
0.162105,0.542105,0.533684,0.460000,0.414737
0.162105,0.542105,0.533684,0.460000,0.414737
0.147368,0.424211,0.445263,0.375789,0.369474
0.136842,0.349474,0.377895,0.313684,0.333684
0.136842,0.349474,0.377895,0.313684,0.333684
0.127368,0.294737,0.322105,0.268421,0.303158
0.127368,0.294737,0.322105,0.268421,0.303158
0.121053,0.273684,0.300000,0.248421,0.289474
0.121053,0.273684,0.300000,0.248421,0.289474
0.112632,0.238947,0.262105,0.216842,0.266316
0.112632,0.238947,0.262105,0.216842,0.266316
0.106316,0.215789,0.236842,0.191579,0.247368
0.100000,0.197895,0.216842,0.173684,0.231579
0.100000,0.197895,0.216842,0.173684,0.231579
0.094737,0.185263,0.202105,0.160000,0.217895
0.090526,0.173684,0.189474,0.148421,0.206316
0.090526,0.173684,0.189474,0.148421,0.206316
0.090526,0.173684,0.189474,0.148421,0.206316
0.086316,0.164211,0.180000,0.140000,0.195789
0.082105,0.156842,0.170526,0.133684,0.187368
0.082105,0.156842,0.170526,0.133684,0.187368
0.078947,0.149474,0.163158,0.127368,0.180000
0.075789,0.142105,0.156842,0.123158,0.172632
0.075789,0.142105,0.156842,0.123158,0.172632
0.073684,0.135789,0.149474,0.118947,0.165263
0.073684,0.135789,0.149474,0.118947,0.165263
0.069474,0.129474,0.144211,0.115789,0.157895
0.067368,0.124211,0.137895,0.111579,0.151579
0.067368,0.124211,0.137895,0.111579,0.151579
0.064211,0.118947,0.131579,0.108421,0.145263
0.062105,0.113684,0.127368,0.106316,0.140000
0.062105,0.113684,0.127368,0.106316,0.140000
0.061053,0.109474,0.123158,0.103158,0.134737
0.061053,0.109474,0.123158,0.103158,0.134737
0.058947,0.105263,0.118947,0.102105,0.131579
0.058947,0.105263,0.118947,0.102105,0.131579
0.057895,0.103158,0.115789,0.100000,0.129474
0.057895,0.103158,0.115789,0.100000,0.129474
0.056842,0.101053,0.112632,0.097895,0.127368
0.055789,0.097895,0.111579,0.096842,0.126316
0.055789,0.097895,0.111579,0.096842,0.126316
0.054737,0.096842,0.109474,0.095789,0.124211
0.054737,0.096842,0.109474,0.095789,0.124211
0.053684,0.095789,0.108421,0.094737,0.123158
0.053684,0.095789,0.108421,0.094737,0.123158
0.053684,0.094737,0.106316,0.093684,0.121053
0.053684,0.094737,0.106316,0.093684,0.121053
0.051579,0.093684,0.105263,0.092632,0.121053
0.051579,0.092632,0.105263,0.091579,0.120000
0.051579,0.092632,0.105263,0.091579,0.120000
0.051579,0.092632,0.104211,0.090526,0.118947
0.051579,0.092632,0.104211,0.090526,0.118947
0.049474,0.091579,0.104211,0.090526,0.117895
0.049474,0.091579,0.103158,0.089474,0.116842
0.049474,0.091579,0.103158,0.089474,0.116842
0.048421,0.090526,0.103158,0.088421,0.116842
0.048421,0.089474,0.102105,0.087368,0.116842
0.048421,0.089474,0.102105,0.087368,0.116842
0.047368,0.089474,0.102105,0.087368,0.116842
0.047368,0.089474,0.102105,0.087368,0.116842
0.046316,0.089474,0.102105,0.086316,0.116842
0.046316,0.089474,0.102105,0.086316,0.116842
0.046316,0.089474,0.102105,0.086316,0.116842
0.046316,0.089474,0.102105,0.086316,0.116842
0.046316,0.089474,0.103158,0.086316,0.118947
0.045263,0.089474,0.104211,0.085263,0.118947
0.045263,0.089474,0.104211,0.085263,0.118947
0.045263,0.089474,0.107368,0.086316,0.121053
0.045263,0.089474,0.107368,0.086316,0.121053
0.045263,0.090526,0.116842,0.086316,0.123158
0.045263,0.090526,0.116842,0.086316,0.123158
0.044211,0.091579,0.134737,0.087368,0.126316
0.044211,0.091579,0.134737,0.087368,0.126316
0.044211,0.093684,0.162105,0.091579,0.131579
0.044211,0.096842,0.193684,0.101053,0.140000
0.044211,0.096842,0.193684,0.101053,0.140000
0.044211,0.105263,0.241053,0.126316,0.152632
0.044211,0.105263,0.241053,0.126316,0.152632
0.045263,0.120000,0.298947,0.178947,0.178947
0.045263,0.120000,0.298947,0.178947,0.178947
0.046316,0.142105,0.365263,0.255789,0.216842
0.046316,0.142105,0.365263,0.255789,0.216842
0.046316,0.175789,0.448421,0.364211,0.270526
0.048421,0.229474,0.555789,0.514737,0.345263
0.048421,0.229474,0.555789,0.514737,0.345263
0.050526,0.315789,0.648421,0.632632,0.428421
0.051579,0.403158,0.708421,0.700000,0.498947
0.051579,0.403158,0.708421,0.700000,0.498947
0.054737,0.496842,0.765263,0.758947,0.568421
0.054737,0.496842,0.765263,0.758947,0.568421
0.056842,0.604211,0.822105,0.815789,0.642105
0.056842,0.604211,0.822105,0.815789,0.642105
0.060000,0.705263,0.867368,0.864210,0.720000
0.063158,0.773684,0.893684,0.892632,0.774737
0.063158,0.773684,0.893684,0.892632,0.774737
0.068421,0.818947,0.912632,0.912632,0.817895
0.068421,0.818947,0.912632,0.912632,0.817895
0.074737,0.858947,0.929474,0.929474,0.854737
0.074737,0.858947,0.929474,0.929474,0.854737
0.085263,0.887368,0.943158,0.943158,0.883158
0.085263,0.887368,0.943158,0.943158,0.883158
0.098947,0.907368,0.951579,0.949474,0.895789
0.098947,0.907368,0.951579,0.949474,0.895789
0.120000,0.923158,0.960000,0.957895,0.907368
0.120000,0.923158,0.960000,0.957895,0.907368
0.155789,0.933684,0.966316,0.962105,0.915789
0.155789,0.933684,0.966316,0.962105,0.915789
0.195789,0.941053,0.971579,0.967368,0.926316
0.195789,0.941053,0.971579,0.967368,0.926316
0.246316,0.946316,0.974737,0.969474,0.930526
0.246316,0.946316,0.974737,0.969474,0.930526
0.310526,0.949474,0.975789,0.971579,0.932632
0.386316,0.950526,0.976842,0.970526,0.933684
0.386316,0.950526,0.976842,0.970526,0.933684
0.470526,0.953684,0.977895,0.970526,0.936842
0.470526,0.953684,0.977895,0.970526,0.936842
0.558947,0.960000,0.980000,0.970526,0.941053
0.558947,0.960000,0.980000,0.970526,0.941053
0.628421,0.965263,0.983158,0.971579,0.945263
0.628421,0.965263,0.983158,0.971579,0.945263
0.717895,0.973684,0.989474,0.968421,0.951579
0.717895,0.973684,0.989474,0.968421,0.951579
0.754737,0.975789,0.992632,0.968421,0.953684
0.754737,0.975789,0.992632,0.968421,0.953684
0.787368,0.977895,0.995789,0.967368,0.955790
0.787368,0.977895,0.995789,0.967368,0.955790
0.822105,0.978947,1.000000,0.967368,0.960000
0.822105,0.978947,1.000000,0.967368,0.960000
0.849474,0.982105,1.000000,0.964211,0.962105
0.868421,0.982105,1.000000,0.962105,0.963158
0.868421,0.982105,1.000000,0.962105,0.963158
0.883158,0.981053,1.000000,0.961053,0.964211
0.883158,0.981053,1.000000,0.961053,0.964211
0.895789,0.982105,1.000000,0.961053,0.965263
0.895789,0.982105,1.000000,0.961053,0.965263
0.904211,0.981053,1.000000,0.960000,0.968421
0.904211,0.981053,1.000000,0.960000,0.968421
0.912632,0.982105,1.000000,0.958947,0.969474
0.912632,0.982105,1.000000,0.958947,0.969474
0.916842,0.981053,1.000000,0.956842,0.969474
0.916842,0.981053,1.000000,0.956842,0.969474
0.922105,0.980000,1.000000,0.955790,0.969474
0.922105,0.980000,1.000000,0.955790,0.969474
0.925263,0.978947,1.000000,0.954737,0.970526
0.925263,0.978947,1.000000,0.954737,0.970526
0.927368,0.978947,1.000000,0.952632,0.969474
0.927368,0.978947,1.000000,0.952632,0.969474
0.926316,0.976842,1.000000,0.952632,0.970526
0.924211,0.975789,1.000000,0.950526,0.969474
0.924211,0.975789,1.000000,0.950526,0.969474
0.923158,0.975789,1.000000,0.950526,0.969474
0.923158,0.975789,1.000000,0.950526,0.969474
0.924211,0.973684,1.000000,0.949474,0.969474
0.924211,0.973684,0.998947,0.949474,0.968421
0.924211,0.973684,0.998947,0.949474,0.968421
0.921053,0.971579,0.997895,0.947368,0.967368
0.918947,0.970526,0.996842,0.947368,0.967368
0.918947,0.970526,0.996842,0.947368,0.967368
0.913684,0.969474,0.995789,0.945263,0.965263
0.912632,0.969474,0.994737,0.945263,0.965263
0.912632,0.969474,0.994737,0.945263,0.965263
0.906316,0.967368,0.992632,0.943158,0.964211
0.906316,0.967368,0.992632,0.943158,0.964211
0.898947,0.967368,0.992632,0.944210,0.961053
0.898947,0.967368,0.992632,0.944210,0.961053
0.894737,0.965263,0.991579,0.942105,0.961053
0.887368,0.964211,0.991579,0.941053,0.957895
0.887368,0.964211,0.991579,0.941053,0.957895
0.877895,0.962105,0.989474,0.940000,0.952632
0.877895,0.962105,0.989474,0.940000,0.952632
0.864210,0.961053,0.987368,0.936842,0.949474
0.864210,0.961053,0.987368,0.936842,0.949474
0.843158,0.960000,0.984211,0.934737,0.945263
0.843158,0.960000,0.984211,0.934737,0.945263
0.808421,0.954737,0.978947,0.931579,0.940000
0.808421,0.954737,0.978947,0.931579,0.940000
0.767368,0.950526,0.973684,0.926316,0.932632
0.767368,0.950526,0.973684,0.926316,0.932632
0.710526,0.945263,0.967368,0.922105,0.923158
0.710526,0.945263,0.967368,0.922105,0.923158
0.640000,0.941053,0.957895,0.913684,0.908421
0.640000,0.941053,0.957895,0.913684,0.908421
0.567368,0.931579,0.947368,0.898947,0.884211
0.567368,0.931579,0.947368,0.898947,0.884211
0.490526,0.920000,0.932632,0.877895,0.848421
0.401053,0.898947,0.913684,0.848421,0.793684
0.401053,0.898947,0.913684,0.848421,0.793684
0.327368,0.872632,0.890526,0.809474,0.726316
0.327368,0.872632,0.890526,0.809474,0.726316
0.271579,0.842105,0.860000,0.763158,0.656842
0.271579,0.842105,0.860000,0.763158,0.656842
0.227368,0.806316,0.822105,0.708421,0.589474
0.197895,0.742105,0.767368,0.632632,0.531579
0.172632,0.662105,0.696842,0.538947,0.490526
0.172632,0.662105,0.696842,0.538947,0.490526
0.154737,0.551579,0.604211,0.441053,0.451579
0.154737,0.551579,0.604211,0.441053,0.451579
0.142105,0.451579,0.515789,0.365263,0.412632
0.142105,0.451579,0.515789,0.365263,0.412632
0.133684,0.387368,0.443158,0.311579,0.376842
0.133684,0.387368,0.443158,0.311579,0.376842
0.124211,0.331579,0.382105,0.269474,0.343158
0.116842,0.289474,0.331579,0.233684,0.311579
0.116842,0.289474,0.331579,0.233684,0.311579
0.111579,0.257895,0.290526,0.208421,0.287368
0.111579,0.257895,0.290526,0.208421,0.287368
0.104211,0.232632,0.256842,0.188421,0.267368
0.104211,0.232632,0.256842,0.188421,0.267368
0.098947,0.211579,0.230526,0.172632,0.249474
0.098947,0.211579,0.230526,0.172632,0.249474
0.095789,0.193684,0.212632,0.158947,0.233684
0.095789,0.193684,0.212632,0.158947,0.233684
0.091579,0.182105,0.198947,0.149474,0.220000
0.091579,0.182105,0.198947,0.149474,0.220000
0.087368,0.170526,0.187368,0.141053,0.207368
0.087368,0.170526,0.187368,0.141053,0.207368
0.084211,0.161053,0.176842,0.133684,0.196842
0.084211,0.161053,0.176842,0.133684,0.196842
0.081053,0.152632,0.167368,0.127368,0.187368
0.081053,0.152632,0.167368,0.127368,0.187368
0.077895,0.145263,0.161053,0.122105,0.178947
0.074737,0.138947,0.153684,0.117895,0.171579
0.074737,0.138947,0.153684,0.117895,0.171579
0.071579,0.132632,0.147368,0.113684,0.164211
0.071579,0.132632,0.147368,0.113684,0.164211
0.068421,0.127368,0.141053,0.110526,0.155789
0.066316,0.122105,0.135789,0.107368,0.149474
0.066316,0.122105,0.135789,0.107368,0.149474
0.064211,0.117895,0.130526,0.104211,0.143158
0.064211,0.117895,0.130526,0.104211,0.143158
0.061053,0.112632,0.125263,0.102105,0.136842
0.058947,0.108421,0.120000,0.098947,0.129474
0.058947,0.108421,0.120000,0.098947,0.129474
0.057895,0.105263,0.115789,0.096842,0.124211
0.057895,0.105263,0.115789,0.096842,0.124211
0.055789,0.102105,0.112632,0.093684,0.118947
0.055789,0.102105,0.112632,0.093684,0.118947
0.054737,0.100000,0.109474,0.092632,0.116842
0.054737,0.100000,0.109474,0.092632,0.116842
0.053684,0.097895,0.108421,0.090526,0.114737
0.051579,0.096842,0.106316,0.089474,0.112632
0.051579,0.096842,0.106316,0.089474,0.112632
0.051579,0.095789,0.105263,0.088421,0.111579
0.051579,0.095789,0.105263,0.088421,0.111579
0.049474,0.093684,0.103158,0.087368,0.110526
0.049474,0.093684,0.103158,0.087368,0.110526
0.049474,0.092632,0.102105,0.086316,0.108421
0.049474,0.092632,0.102105,0.086316,0.108421
0.049474,0.091579,0.101053,0.085263,0.108421
0.048421,0.091579,0.101053,0.084211,0.107368
0.048421,0.091579,0.101053,0.084211,0.107368
0.046316,0.090526,0.100000,0.084211,0.106316
0.046316,0.090526,0.100000,0.084211,0.106316
0.046316,0.089474,0.098947,0.083158,0.106316
0.046316,0.089474,0.098947,0.083158,0.106316
0.045263,0.088421,0.098947,0.083158,0.105263
0.045263,0.088421,0.098947,0.083158,0.105263
0.045263,0.088421,0.097895,0.082105,0.104211
0.044211,0.087368,0.097895,0.081053,0.104211
0.044211,0.087368,0.097895,0.081053,0.104211
0.044211,0.087368,0.096842,0.081053,0.104211
0.043158,0.086316,0.096842,0.080000,0.104211
0.043158,0.086316,0.096842,0.080000,0.104211
0.043158,0.086316,0.096842,0.080000,0.104211
0.043158,0.086316,0.096842,0.080000,0.104211
0.042105,0.086316,0.096842,0.078947,0.103158
0.042105,0.085263,0.095789,0.078947,0.103158
0.042105,0.085263,0.095789,0.078947,0.103158
0.042105,0.085263,0.095789,0.078947,0.104211
0.042105,0.085263,0.095789,0.078947,0.104211
0.042105,0.085263,0.096842,0.078947,0.104211
0.042105,0.085263,0.096842,0.078947,0.104211
0.041053,0.085263,0.098947,0.077895,0.106316
0.041053,0.085263,0.098947,0.077895,0.106316
0.041053,0.084211,0.103158,0.076842,0.108421
0.041053,0.086316,0.116842,0.077895,0.112632
0.041053,0.086316,0.116842,0.077895,0.112632
0.041053,0.088421,0.152632,0.080000,0.117895
0.041053,0.088421,0.152632,0.080000,0.117895
0.042105,0.091579,0.198947,0.086316,0.127368
0.042105,0.091579,0.198947,0.086316,0.127368
0.041053,0.095789,0.247368,0.106316,0.141053
0.041053,0.095789,0.247368,0.106316,0.141053
0.042105,0.108421,0.313684,0.158947,0.160000
0.046316,0.138947,0.408421,0.262105,0.192632
0.046316,0.138947,0.408421,0.262105,0.192632
0.050526,0.190526,0.501053,0.405263,0.243158
0.050526,0.190526,0.501053,0.405263,0.243158
0.052632,0.262105,0.589474,0.546316,0.322105
0.052632,0.262105,0.589474,0.546316,0.322105
0.057895,0.358947,0.690526,0.671579,0.417895
0.057895,0.358947,0.690526,0.671579,0.417895
0.065263,0.475789,0.778947,0.775789,0.530526
0.074737,0.589474,0.831579,0.833684,0.629474
0.074737,0.589474,0.831579,0.833684,0.629474
0.089474,0.680000,0.869474,0.871579,0.710526
0.108421,0.753684,0.896842,0.901053,0.770526
0.108421,0.753684,0.896842,0.901053,0.770526
0.131579,0.809474,0.918947,0.921053,0.814737
0.131579,0.809474,0.918947,0.921053,0.814737
0.158947,0.852632,0.934737,0.936842,0.845263
0.158947,0.852632,0.934737,0.936842,0.845263
0.191579,0.881053,0.948421,0.950526,0.871579
0.191579,0.881053,0.948421,0.950526,0.871579
0.230526,0.898947,0.954737,0.958947,0.890526
0.230526,0.898947,0.954737,0.958947,0.890526
0.269474,0.913684,0.960000,0.964211,0.902105
0.269474,0.913684,0.960000,0.964211,0.902105
0.314737,0.925263,0.966316,0.969474,0.908421
0.314737,0.925263,0.966316,0.969474,0.908421
0.366316,0.936842,0.970526,0.972632,0.913684
0.366316,0.936842,0.970526,0.972632,0.913684
0.418947,0.945263,0.975789,0.975789,0.918947
0.467368,0.950526,0.978947,0.977895,0.924211
0.467368,0.950526,0.978947,0.977895,0.924211
0.512632,0.953684,0.981053,0.980000,0.926316
0.512632,0.953684,0.981053,0.980000,0.926316
0.554737,0.958947,0.984211,0.980000,0.926316
0.554737,0.958947,0.984211,0.980000,0.926316
0.588421,0.962105,0.985263,0.982105,0.928421
0.588421,0.962105,0.985263,0.982105,0.928421
0.617895,0.964211,0.985263,0.980000,0.929474
0.652632,0.965263,0.986316,0.980000,0.929474
0.652632,0.965263,0.986316,0.980000,0.929474
0.681053,0.966316,0.985263,0.977895,0.930526
0.681053,0.966316,0.985263,0.977895,0.930526
0.702105,0.967368,0.985263,0.976842,0.930526
0.702105,0.967368,0.985263,0.976842,0.930526
0.717895,0.967368,0.988421,0.976842,0.934737
0.717895,0.967368,0.988421,0.976842,0.934737
0.734737,0.967368,0.989474,0.974737,0.936842
0.734737,0.967368,0.989474,0.974737,0.936842
0.744210,0.971579,0.991579,0.975789,0.941053
0.744210,0.971579,0.991579,0.975789,0.941053
0.760000,0.973684,0.993684,0.973684,0.943158
0.760000,0.973684,0.993684,0.973684,0.943158
0.784211,0.975789,0.995789,0.973684,0.947368
0.784211,0.975789,0.995789,0.973684,0.947368
0.803158,0.975789,0.997895,0.971579,0.950526
0.803158,0.975789,0.997895,0.971579,0.950526
0.822105,0.976842,0.997895,0.970526,0.953684
0.822105,0.976842,0.997895,0.970526,0.953684
0.837895,0.977895,0.998947,0.968421,0.954737
0.837895,0.977895,0.998947,0.968421,0.954737
0.852632,0.978947,1.000000,0.968421,0.957895
0.852632,0.978947,1.000000,0.968421,0.957895
0.866316,0.977895,1.000000,0.968421,0.958947
0.866316,0.977895,1.000000,0.968421,0.958947
0.874737,0.977895,1.000000,0.966316,0.958947
0.874737,0.976842,1.000000,0.964211,0.958947
0.874737,0.976842,1.000000,0.964211,0.958947
0.878947,0.976842,1.000000,0.963158,0.957895
0.878947,0.976842,1.000000,0.963158,0.957895
0.878947,0.974737,0.998947,0.961053,0.957895
0.878947,0.974737,0.998947,0.961053,0.957895
0.876842,0.974737,0.997895,0.961053,0.956842
0.876842,0.974737,0.997895,0.961053,0.956842
0.870526,0.972632,0.995789,0.958947,0.956842
0.863158,0.971579,0.993684,0.958947,0.953684
0.863158,0.971579,0.993684,0.958947,0.953684
0.855789,0.971579,0.992632,0.957895,0.950526
0.855789,0.971579,0.992632,0.957895,0.950526
0.844211,0.969474,0.990526,0.955790,0.948421
0.844211,0.969474,0.990526,0.955790,0.948421
0.837895,0.968421,0.990526,0.954737,0.944210
0.837895,0.968421,0.990526,0.954737,0.944210
0.829474,0.967368,0.989474,0.954737,0.942105
0.821053,0.964211,0.988421,0.952632,0.938947
0.812632,0.963158,0.985263,0.950526,0.935789
0.812632,0.963158,0.985263,0.950526,0.935789
0.801053,0.960000,0.984211,0.949474,0.932632
0.801053,0.960000,0.984211,0.949474,0.932632
0.788421,0.957895,0.982105,0.947368,0.928421
0.788421,0.957895,0.982105,0.947368,0.928421
0.764211,0.954737,0.977895,0.945263,0.923158
0.764211,0.954737,0.977895,0.945263,0.923158
0.718947,0.949474,0.971579,0.942105,0.915789
0.654737,0.943158,0.963158,0.936842,0.905263
0.654737,0.943158,0.963158,0.936842,0.905263
0.585263,0.936842,0.954737,0.928421,0.889474
0.585263,0.936842,0.954737,0.928421,0.889474
0.523158,0.926316,0.944210,0.917895,0.865263
0.523158,0.926316,0.944210,0.917895,0.865263
0.467368,0.914737,0.932632,0.903158,0.830526
0.467368,0.914737,0.932632,0.903158,0.830526
0.413684,0.898947,0.915789,0.882105,0.778947
0.362105,0.876842,0.894737,0.860000,0.721053
0.362105,0.876842,0.894737,0.860000,0.721053
0.313684,0.854737,0.871579,0.832632,0.663158
0.313684,0.854737,0.871579,0.832632,0.663158
0.265263,0.832632,0.845263,0.801053,0.611579
0.265263,0.832632,0.845263,0.801053,0.611579
0.224211,0.803158,0.809474,0.763158,0.562105
0.224211,0.803158,0.809474,0.763158,0.562105
0.194737,0.745263,0.758947,0.706316,0.503158
0.171579,0.675789,0.666316,0.602105,0.453684
0.171579,0.675789,0.666316,0.602105,0.453684
0.152632,0.581053,0.575790,0.509474,0.414737
0.152632,0.581053,0.575790,0.509474,0.414737
0.142105,0.471579,0.491579,0.414737,0.375789
0.142105,0.471579,0.491579,0.414737,0.375789
0.130526,0.392632,0.415789,0.343158,0.337895
0.130526,0.392632,0.415789,0.343158,0.337895
0.114737,0.286316,0.305263,0.251579,0.277895
0.114737,0.286316,0.305263,0.251579,0.277895
0.109474,0.252632,0.265263,0.221053,0.257895
0.109474,0.252632,0.265263,0.221053,0.257895
0.104211,0.225263,0.236842,0.195789,0.238947
0.104211,0.225263,0.236842,0.195789,0.238947
0.098947,0.205263,0.214737,0.176842,0.224211
0.098947,0.205263,0.214737,0.176842,0.224211
0.093684,0.188421,0.198947,0.162105,0.211579
0.089474,0.175789,0.187368,0.150526,0.198947
0.089474,0.175789,0.187368,0.150526,0.198947
0.084211,0.165263,0.175789,0.141053,0.189474
0.084211,0.165263,0.175789,0.141053,0.189474
0.080000,0.156842,0.167368,0.133684,0.181053
0.080000,0.156842,0.167368,0.133684,0.181053
0.075789,0.149474,0.158947,0.127368,0.173684
0.075789,0.149474,0.158947,0.127368,0.173684
0.071579,0.143158,0.152632,0.123158,0.167368
0.069474,0.137895,0.146316,0.118947,0.160000
0.069474,0.137895,0.146316,0.118947,0.160000
0.065263,0.132632,0.140000,0.114737,0.153684
0.065263,0.132632,0.140000,0.114737,0.153684
0.063158,0.128421,0.134737,0.111579,0.146316
0.063158,0.128421,0.134737,0.111579,0.146316
0.060000,0.124211,0.130526,0.108421,0.141053
0.060000,0.124211,0.130526,0.108421,0.141053
0.057895,0.120000,0.126316,0.106316,0.134737
0.055789,0.116842,0.122105,0.104211,0.130526
0.055789,0.116842,0.122105,0.104211,0.130526
0.052632,0.113684,0.118947,0.101053,0.125263
0.052632,0.113684,0.118947,0.101053,0.125263
0.050526,0.110526,0.115789,0.098947,0.120000
0.050526,0.110526,0.115789,0.098947,0.120000
0.049474,0.107368,0.112632,0.096842,0.115789
0.046316,0.105263,0.109474,0.095789,0.111579
0.046316,0.105263,0.109474,0.095789,0.111579
0.045263,0.103158,0.107368,0.093684,0.108421
0.043158,0.101053,0.106316,0.092632,0.105263
0.043158,0.101053,0.106316,0.092632,0.105263
0.042105,0.098947,0.104211,0.090526,0.103158
0.042105,0.098947,0.104211,0.090526,0.103158
0.041053,0.097895,0.103158,0.089474,0.101053
0.041053,0.097895,0.103158,0.089474,0.101053
0.042105,0.095789,0.101053,0.088421,0.098947
0.042105,0.095789,0.101053,0.088421,0.098947
0.040000,0.094737,0.100000,0.087368,0.097895
0.038947,0.093684,0.098947,0.086316,0.096842
0.038947,0.093684,0.098947,0.086316,0.096842
0.037895,0.092632,0.098947,0.086316,0.094737
0.037895,0.092632,0.098947,0.086316,0.094737
0.037895,0.091579,0.097895,0.085263,0.093684
0.037895,0.091579,0.097895,0.085263,0.093684
0.037895,0.090526,0.096842,0.084211,0.093684
0.037895,0.089474,0.095789,0.083158,0.091579
0.037895,0.089474,0.095789,0.083158,0.091579
0.036842,0.088421,0.095789,0.083158,0.091579
0.036842,0.088421,0.095789,0.083158,0.091579
0.035789,0.088421,0.094737,0.082105,0.090526
0.035789,0.088421,0.094737,0.082105,0.090526
0.034737,0.087368,0.093684,0.082105,0.089474
0.034737,0.087368,0.093684,0.082105,0.089474
0.034737,0.086316,0.093684,0.081053,0.089474
0.034737,0.086316,0.093684,0.081053,0.089474
0.034737,0.085263,0.092632,0.081053,0.088421
0.033684,0.085263,0.092632,0.080000,0.088421
0.033684,0.085263,0.092632,0.080000,0.088421
0.033684,0.085263,0.092632,0.080000,0.087368
0.033684,0.085263,0.092632,0.080000,0.087368
0.032632,0.084211,0.092632,0.078947,0.088421
0.032632,0.085263,0.092632,0.078947,0.087368
0.032632,0.085263,0.092632,0.078947,0.087368
0.031579,0.084211,0.092632,0.078947,0.089474
0.031579,0.083158,0.092632,0.077895,0.090526
0.031579,0.083158,0.092632,0.077895,0.090526
0.031579,0.083158,0.095789,0.076842,0.092632
0.031579,0.083158,0.095789,0.076842,0.092632
0.031579,0.084211,0.102105,0.076842,0.095789
0.031579,0.084211,0.102105,0.076842,0.095789
0.031579,0.085263,0.122105,0.078947,0.102105
0.031579,0.085263,0.122105,0.078947,0.102105
0.031579,0.087368,0.158947,0.080000,0.109474
0.031579,0.089474,0.202105,0.087368,0.118947
0.031579,0.089474,0.202105,0.087368,0.118947
0.030526,0.095789,0.247368,0.107368,0.131579
0.030526,0.095789,0.247368,0.107368,0.131579
0.032632,0.109474,0.309474,0.156842,0.151579
0.032632,0.109474,0.309474,0.156842,0.151579
0.032632,0.117895,0.346316,0.194737,0.166316
0.032632,0.117895,0.346316,0.194737,0.166316
0.033684,0.142105,0.423158,0.291579,0.207368
0.033684,0.142105,0.423158,0.291579,0.207368
0.033684,0.168421,0.481053,0.382105,0.262105
0.033684,0.168421,0.481053,0.382105,0.262105
0.034737,0.247368,0.611579,0.573684,0.378947
0.034737,0.247368,0.611579,0.573684,0.378947
0.035789,0.314737,0.677895,0.660000,0.450526
0.035789,0.314737,0.677895,0.660000,0.450526
0.036842,0.374737,0.721053,0.715789,0.514737
0.037895,0.430526,0.753684,0.757895,0.570526
0.037895,0.430526,0.753684,0.757895,0.570526
0.038947,0.497895,0.786316,0.795789,0.620000
0.040000,0.581053,0.825263,0.832632,0.671579
0.040000,0.581053,0.825263,0.832632,0.671579
0.041053,0.650526,0.852632,0.860000,0.714737
0.041053,0.650526,0.852632,0.860000,0.714737
0.042105,0.703158,0.874737,0.883158,0.751579
0.042105,0.703158,0.874737,0.883158,0.751579
0.044211,0.750526,0.893684,0.900000,0.778947
0.045263,0.797895,0.912632,0.915789,0.805263
0.045263,0.797895,0.912632,0.915789,0.805263
0.047368,0.842105,0.928421,0.928421,0.829474
0.047368,0.842105,0.928421,0.928421,0.829474
0.049474,0.867368,0.938947,0.938947,0.847368
0.049474,0.867368,0.938947,0.938947,0.847368
0.053684,0.888421,0.948421,0.947368,0.861053
0.053684,0.888421,0.948421,0.947368,0.861053
0.057895,0.909474,0.960000,0.955790,0.874737
0.070526,0.929474,0.971579,0.964211,0.888421
0.070526,0.929474,0.971579,0.964211,0.888421
0.097895,0.940000,0.975789,0.968421,0.896842
0.097895,0.940000,0.975789,0.968421,0.896842
0.141053,0.947368,0.980000,0.972632,0.903158
0.141053,0.947368,0.980000,0.972632,0.903158
0.204211,0.952632,0.983158,0.973684,0.908421
0.204211,0.952632,0.983158,0.973684,0.908421
0.312632,0.958947,0.985263,0.976842,0.913684
0.312632,0.958947,0.985263,0.976842,0.913684
0.443158,0.963158,0.987368,0.976842,0.918947
0.443158,0.963158,0.987368,0.976842,0.918947
0.550526,0.964211,0.990526,0.977895,0.925263
0.550526,0.964211,0.990526,0.977895,0.925263
0.621053,0.964211,0.990526,0.974737,0.929474
0.621053,0.964211,0.990526,0.974737,0.929474
0.686316,0.965263,0.990526,0.972632,0.933684
0.686316,0.965263,0.990526,0.972632,0.933684
0.730526,0.966316,0.994737,0.970526,0.936842
0.768421,0.970526,0.997895,0.969474,0.941053
0.801053,0.972632,1.000000,0.968421,0.944210
0.801053,0.972632,1.000000,0.968421,0.944210
0.824211,0.971579,1.000000,0.966316,0.947368
0.824211,0.971579,1.000000,0.966316,0.947368
0.846316,0.972632,1.000000,0.964211,0.950526
0.846316,0.972632,1.000000,0.964211,0.950526
0.866316,0.973684,1.000000,0.964211,0.951579
0.882105,0.973684,1.000000,0.962105,0.954737
0.882105,0.973684,1.000000,0.962105,0.954737
0.892632,0.975789,1.000000,0.963158,0.954737
0.892632,0.975789,1.000000,0.963158,0.954737
0.901053,0.973684,1.000000,0.961053,0.954737
0.901053,0.973684,1.000000,0.961053,0.954737
0.909474,0.975789,1.000000,0.961053,0.954737
0.909474,0.975789,1.000000,0.961053,0.954737
0.915789,0.975789,1.000000,0.958947,0.955790
0.920000,0.976842,1.000000,0.958947,0.955790
0.920000,0.976842,1.000000,0.958947,0.955790
0.923158,0.975789,1.000000,0.955790,0.955790
0.923158,0.975789,1.000000,0.955790,0.955790
0.924211,0.974737,1.000000,0.955790,0.954737
0.924211,0.974737,1.000000,0.955790,0.954737
0.925263,0.973684,1.000000,0.954737,0.953684
0.925263,0.973684,1.000000,0.954737,0.953684
0.925263,0.973684,1.000000,0.953684,0.953684
0.925263,0.973684,1.000000,0.953684,0.953684
0.923158,0.972632,1.000000,0.952632,0.953684
0.923158,0.972632,1.000000,0.952632,0.953684
0.916842,0.970526,1.000000,0.952632,0.951579
0.916842,0.970526,1.000000,0.952632,0.951579
0.909474,0.971579,1.000000,0.950526,0.949474
0.909474,0.971579,1.000000,0.950526,0.949474
0.901053,0.969474,1.000000,0.949474,0.946316
0.901053,0.969474,1.000000,0.949474,0.946316
0.891579,0.967368,0.998947,0.949474,0.944210
0.886316,0.965263,0.996842,0.947368,0.941053
0.877895,0.964211,0.994737,0.946316,0.937895
0.877895,0.964211,0.994737,0.946316,0.937895
0.868421,0.962105,0.993684,0.945263,0.934737
0.868421,0.962105,0.993684,0.945263,0.934737
0.852632,0.960000,0.991579,0.943158,0.931579
0.852632,0.960000,0.991579,0.943158,0.931579
0.834737,0.954737,0.988421,0.940000,0.926316
0.834737,0.954737,0.988421,0.940000,0.926316
0.808421,0.951579,0.983158,0.935789,0.922105
0.767368,0.944210,0.975789,0.931579,0.913684
0.767368,0.944210,0.975789,0.931579,0.913684
0.716842,0.938947,0.966316,0.925263,0.904211
0.716842,0.938947,0.966316,0.925263,0.904211
0.654737,0.930526,0.956842,0.914737,0.887368
0.654737,0.930526,0.956842,0.914737,0.887368
0.582105,0.918947,0.945263,0.898947,0.862105
0.582105,0.918947,0.945263,0.898947,0.862105
0.484211,0.900000,0.928421,0.875789,0.822105
0.380000,0.874737,0.906316,0.846316,0.770526
0.380000,0.874737,0.906316,0.846316,0.770526
0.298947,0.841053,0.872632,0.803158,0.706316
0.298947,0.841053,0.872632,0.803158,0.706316
0.238947,0.800000,0.831579,0.743158,0.635790
0.238947,0.800000,0.831579,0.743158,0.635790
0.200000,0.729474,0.769474,0.658947,0.565263
0.200000,0.729474,0.769474,0.658947,0.565263
0.172632,0.641053,0.686316,0.558947,0.508421
0.153684,0.533684,0.595789,0.464211,0.460000
0.153684,0.533684,0.595789,0.464211,0.460000
0.143158,0.435789,0.509474,0.380000,0.413684
0.143158,0.435789,0.509474,0.380000,0.413684
0.132632,0.368421,0.435789,0.321053,0.372632
0.132632,0.368421,0.435789,0.321053,0.372632
0.125263,0.316842,0.376842,0.277895,0.337895
0.118947,0.277895,0.328421,0.242105,0.306316
0.112632,0.248421,0.287368,0.212632,0.281053
0.112632,0.248421,0.287368,0.212632,0.281053
0.107368,0.224211,0.254737,0.191579,0.262105
0.107368,0.224211,0.254737,0.191579,0.262105
0.103158,0.205263,0.228421,0.174737,0.242105
0.103158,0.205263,0.228421,0.174737,0.242105
0.098947,0.190526,0.209474,0.161053,0.227368
0.098947,0.190526,0.209474,0.161053,0.227368
0.093684,0.177895,0.195789,0.149474,0.213684
0.088421,0.167368,0.184211,0.140000,0.201053
0.088421,0.167368,0.184211,0.140000,0.201053
0.084211,0.158947,0.174737,0.133684,0.191579
0.084211,0.158947,0.174737,0.133684,0.191579
0.080000,0.152632,0.166316,0.127368,0.183158
0.080000,0.152632,0.166316,0.127368,0.183158
0.075789,0.146316,0.158947,0.123158,0.176842
0.075789,0.146316,0.158947,0.123158,0.176842
0.071579,0.140000,0.152632,0.118947,0.169474
0.069474,0.135789,0.147368,0.115789,0.163158
0.069474,0.135789,0.147368,0.115789,0.163158
0.066316,0.130526,0.143158,0.111579,0.157895
0.066316,0.130526,0.143158,0.111579,0.157895
0.064211,0.126316,0.137895,0.109474,0.152632
0.064211,0.126316,0.137895,0.109474,0.152632
0.061053,0.122105,0.133684,0.106316,0.147368
0.061053,0.122105,0.133684,0.106316,0.147368
0.058947,0.118947,0.129474,0.104211,0.143158
0.056842,0.114737,0.126316,0.102105,0.137895
0.056842,0.114737,0.126316,0.102105,0.137895
0.055789,0.111579,0.122105,0.100000,0.133684
0.055789,0.111579,0.122105,0.100000,0.133684
0.053684,0.107368,0.118947,0.097895,0.130526
0.053684,0.107368,0.118947,0.097895,0.130526
0.052632,0.104211,0.115789,0.096842,0.125263
0.052632,0.104211,0.115789,0.096842,0.125263
0.050526,0.101053,0.112632,0.094737,0.121053
0.049474,0.097895,0.108421,0.092632,0.116842
0.047368,0.094737,0.106316,0.090526,0.112632
0.047368,0.094737,0.106316,0.090526,0.112632
