1.801414,13.028461,4.930746,2.269183,20.531073,8.757669,18.422758,27.848339
1.795782,13.045338,5.009132,2.260653,20.320677,8.677997,18.312450,28.037472
1.822080,13.245750,5.305664,2.254955,19.666519,8.573458,18.147264,29.248821
1.845450,13.258768,5.443330,2.328782,19.320137,8.497952,17.978561,30.092817
1.861483,13.292128,5.509436,2.329677,19.141670,8.426643,17.893400,30.487339
1.874029,13.424871,5.496374,2.405589,18.766745,8.514264,17.607437,31.340706
1.876684,13.389602,5.352692,2.409765,18.713829,8.490724,17.487322,31.366472
1.876863,13.342437,5.269867,2.399644,18.654366,8.477381,17.403347,31.329155
1.874729,13.283282,5.193601,2.390333,18.596296,8.492412,17.383181,31.391321
1.881067,13.251883,5.123434,2.381766,18.683487,8.559283,17.260525,31.451233
1.906414,13.153887,5.006552,2.367883,18.773146,8.711276,16.942949,31.474230
1.942502,12.993558,4.932322,2.357281,18.865580,8.856131,16.714725,31.465054
1.952590,12.909622,4.901193,2.352607,18.917732,8.920085,16.611320,31.467112
1.979615,12.586889,4.885055,2.344350,18.899775,9.043477,16.428307,31.488920
2.119812,11.883078,4.500825,2.322797,17.873974,9.161787,16.135883,31.771870
2.175182,11.739287,4.398138,2.298092,17.548967,9.239833,16.028524,31.948063
2.247221,11.709888,4.312803,2.288488,17.248709,9.347468,15.897285,32.107151
2.399988,11.656835,4.166531,2.271523,16.718290,9.512490,15.654384,32.464413
2.475023,11.657777,4.114614,2.264043,16.517422,9.561200,15.529983,32.468548
2.595225,11.604780,4.030476,2.251336,16.030312,9.682873,15.502225,32.546974
2.664890,11.571161,3.966222,2.224694,15.551172,9.824142,15.586210,32.655495
2.723861,11.404418,3.911832,2.186394,15.227121,9.987919,15.631966,32.885170
2.749859,11.320889,3.887853,2.169509,15.043889,10.057739,15.663966,33.052036
2.816758,11.266080,3.779688,2.126531,14.410927,10.129213,16.057646,33.269127
2.870723,11.507065,3.741307,2.103301,14.010917,10.107816,16.245815,33.148567
2.941868,11.767290,3.708818,2.090344,13.672318,10.137726,16.447735,33.118408
2.979795,11.880589,3.692099,2.092226,13.465315,10.154453,16.480631,33.113140
3.076847,12.097057,3.667283,2.095549,13.057086,10.214518,16.566769,33.259659
3.145821,12.218102,3.658604,2.084583,12.812511,10.231795,16.579195,33.455566
3.285906,12.474990,3.643272,2.077434,12.380465,10.303506,16.647270,33.767712
3.398007,12.647223,3.555789,2.062991,12.045359,10.457950,16.797667,33.678844
3.463084,12.819595,3.481735,2.050766,11.813145,10.669554,16.852926,33.461395
3.566450,13.126345,3.365402,2.019007,11.515173,10.892185,16.896587,33.674858
3.602032,13.197616,3.376009,2.010067,11.431292,10.966752,16.932703,33.747414
3.691682,13.332695,3.336326,1.987311,11.325460,11.088210,17.014845,33.874283
3.740292,13.297793,3.310631,1.975011,11.508687,11.085306,17.198902,33.872246
3.764451,13.287125,3.292944,1.969588,11.619883,11.105007,17.291550,33.678242
3.793229,13.290990,3.275977,1.892230,11.862700,11.188387,17.478514,33.240112
3.818777,13.281712,3.239925,1.795427,12.014662,11.251916,17.644215,32.751106
3.845484,13.320414,3.223199,1.752750,12.029095,11.291627,17.718212,32.525974
3.924182,13.470373,3.193652,1.638150,11.966653,11.190870,17.887699,32.157360
3.987741,13.588028,3.161878,1.541143,11.804271,11.100198,18.129515,32.195419
4.041842,13.750799,3.128761,1.459028,11.666815,11.034333,18.404781,32.311527
4.088469,13.956928,3.123593,1.397701,11.521805,10.951276,18.679819,32.330662
4.102777,14.024338,3.132272,1.370663,11.303524,10.848150,18.804607,32.194298
4.116538,14.165731,3.239194,1.321651,10.970186,10.682936,19.032610,31.860245
4.138189,14.325853,3.308898,1.279013,10.671482,10.587942,19.242035,31.545399
4.156890,14.591914,3.360614,1.242920,10.396741,10.655536,19.438114,31.218203
4.166322,14.819221,3.373717,1.227009,10.284511,10.680739,19.534271,31.088783
4.139306,15.441054,3.395457,1.144411,9.998848,10.896785,19.785723,30.671936
4.074395,15.701826,3.409814,1.103876,9.863018,11.253480,20.047398,30.169786
3.974304,15.747639,3.417959,1.065136,9.862762,11.901011,20.186346,29.945333
3.877646,15.749903,3.405837,1.032344,9.973868,12.655591,20.256222,29.805748
3.833115,15.744033,3.395497,1.017886,10.109743,13.201461,20.266275,29.706118
3.751277,15.714634,3.362690,0.975271,10.349771,14.469429,20.146128,29.689589
3.720580,15.682940,3.348227,0.948766,10.545531,15.172969,20.103781,29.733240
3.672561,15.648536,3.322677,0.901944,10.940767,16.861612,20.020077,29.663464
3.654366,15.669069,3.316434,0.881301,11.033179,17.679127,20.039398,29.545794
3.574507,15.509343,3.296320,0.813969,11.270430,20.765852,19.953556,29.436859
3.525605,15.285142,3.272444,0.784857,11.432652,22.300545,20.104620,29.864470
3.473602,15.091780,3.252234,0.750761,11.796205,23.787828,20.193729,30.296818
3.441782,14.989047,3.250699,0.802706,12.161794,24.642365,20.247234,30.457815
3.345056,14.804004,3.233519,0.954618,12.839156,26.434738,20.428795,30.491108
3.291651,14.686694,3.225945,1.018574,13.303525,27.236347,20.540106,30.498323
3.202154,14.451366,3.212565,1.148583,14.123847,28.792356,20.698639,30.576065
3.175347,14.342685,3.206667,1.228237,14.454885,29.639074,20.819695,30.654392
3.173124,14.231225,3.216687,1.313993,14.759458,30.560705,20.937887,30.836750
3.085073,13.733646,3.282672,1.837833,16.147287,33.987267,21.331253,30.235060
3.052324,13.672981,3.211749,1.977599,16.611532,34.731182,21.388962,29.981520
2.947293,13.472480,2.975190,2.371048,18.338329,37.109787,21.480759,29.534977
2.875960,13.328568,2.834811,2.606904,19.285707,38.833252,21.432478,29.771101
2.831988,13.276046,2.772923,2.710885,19.725849,39.778721,21.405668,29.899723
2.743374,13.252524,2.659821,3.262467,21.564022,42.878067,21.281284,30.198906
2.680244,13.157563,2.598688,3.595557,22.769611,44.824177,21.116608,30.565060
2.599264,12.945250,2.598794,4.044576,24.074862,46.901814,20.983578,30.938339
2.590880,12.912396,2.669946,4.253362,24.648745,47.976250,20.907200,31.018717
2.608011,12.886604,2.805337,4.721966,26.172146,50.267345,20.790987,31.452524
2.761461,12.834734,2.960463,5.577613,29.058214,53.806396,20.433926,32.738415
2.917611,12.862859,2.974940,6.209459,31.184986,56.214050,20.325235,33.645199
3.000969,12.847683,2.961516,6.605314,32.329327,57.330570,20.344238,34.139858
3.133440,12.862828,2.974296,7.623182,34.632664,59.586609,20.423853,35.515816
3.300270,12.789270,2.993176,9.023349,37.019287,61.443443,20.740564,36.999226
3.439876,12.468109,3.056856,10.911378,39.573223,63.378483,21.098286,38.231003
3.518533,12.320573,3.101561,11.993501,40.904652,64.366371,21.352877,38.894569
3.638545,12.234004,3.158502,13.149143,42.265739,65.374191,21.678350,39.665031
3.908131,12.087079,3.257058,15.287203,44.904114,67.105003,22.352083,41.134026
4.397429,11.875154,3.448889,19.505959,49.830441,69.573959,23.811678,43.491180
4.662358,11.868855,3.547540,21.652376,51.887459,70.296211,24.537075,44.561249
4.925433,11.979750,3.646858,23.813040,54.038410,70.614380,25.191435,45.356682
5.052812,12.056938,3.695097,24.789762,55.023708,70.556709,25.496458,45.784409
5.180793,12.124577,3.794788,25.854683,56.042961,70.475548,25.785631,46.177265
5.642615,12.162894,4.211933,30.716089,60.604973,70.882683,26.581371,48.107044
5.854956,12.063238,4.399457,33.192272,63.016121,71.232773,26.935045,48.690392
6.068872,11.966632,4.566393,35.574429,65.185066,71.802956,27.220882,49.172199
6.168941,11.923267,4.660618,36.676399,66.188484,72.015739,27.362650,49.405853
6.393300,11.948951,4.848958,38.691116,67.836594,72.371361,27.647837,50.141785
6.497062,11.980650,4.933840,39.699787,68.625145,72.514183,27.796030,50.474422
6.689902,12.093218,5.260643,41.684731,69.916260,72.815544,28.121122,51.278904
6.848833,12.194570,5.588947,43.619576,71.458351,72.938110,28.453770,52.114040
6.894435,12.252604,5.781994,44.662197,72.222565,72.887840,28.616562,52.385689
7.062903,12.464195,6.183889,46.569664,73.900749,73.005737,28.963650,53.092285
7.240259,12.674373,6.538034,48.338398,75.346176,73.231956,29.423120,53.763218
7.320137,12.714508,6.751443,49.113144,76.107620,73.549782,29.702492,54.011364
7.396307,12.751360,6.947788,49.997421,76.831848,73.822311,29.966614,54.342361
7.740218,12.871316,7.594102,53.498154,78.941711,74.537743,30.750298,55.017357
7.886196,12.869082,7.820240,54.870205,79.803528,74.379005,31.042831,55.139965
7.991958,12.808905,8.175798,56.080250,80.259018,74.144470,31.308649,55.273808
8.035836,12.787179,8.357593,56.775074,80.565399,74.049950,31.480515,55.298233
8.133653,12.774496,8.651732,58.379448,81.295547,74.074776,31.737396,55.388245
8.172544,12.797310,8.768469,59.208355,81.645386,74.081184,31.812176,55.469139
8.229186,12.736203,8.899531,61.076042,82.533409,73.936615,31.976439,55.604759
8.273204,12.618599,9.030190,63.051147,83.184937,73.498688,32.153870,55.828777
8.272554,12.424325,9.140791,64.744255,83.464706,72.864632,32.489407,55.881981
8.167755,12.079000,9.264817,67.252220,82.926102,71.852028,32.644356,56.361534
8.143611,11.999000,9.272570,67.685555,82.814186,71.687462,32.563248,56.288143
8.092507,11.899322,9.341269,68.011131,82.719460,71.556709,32.405273,56.152466
7.972880,11.732171,9.526257,68.603958,82.327759,71.303795,31.967964,56.367088
7.937797,11.685322,9.571692,68.605537,82.206871,71.200668,31.755922,56.506454
7.818750,11.515207,9.621596,68.742485,81.872093,70.984200,31.204531,56.614067
7.760695,11.474270,9.715499,68.893150,81.766823,71.023964,30.872837,56.671848
7.625693,11.412282,9.855816,69.138618,81.465691,71.178993,30.314013,57.032673
7.501765,11.273474,9.959965,69.352249,81.121086,71.136703,29.703833,57.452682
7.261783,10.944183,10.098251,69.359161,80.637100,71.342529,28.704315,57.638260
7.176206,10.688865,10.173921,69.303268,80.177048,71.533279,28.059210,57.614788
7.122916,10.560860,10.169765,69.182007,79.928795,71.658302,27.758997,57.657047
7.053102,10.449704,10.124515,68.810135,79.540771,71.794067,27.307167,57.632286
6.891370,10.292509,10.160485,68.171288,78.642326,72.605453,26.414633,56.840076
6.859346,10.258633,10.263163,67.991722,78.567055,72.734825,26.182392,56.665329
6.765727,10.123354,10.468139,67.517883,78.289238,72.873474,25.583254,56.065472
6.732092,10.055980,10.557760,67.250519,78.223343,72.778801,25.337164,55.993198
6.704633,9.747680,10.617855,65.766472,77.705818,72.482254,24.297714,55.549423
6.687770,9.633180,10.514232,64.657585,77.552071,72.561577,23.754435,55.055256
6.607511,9.451490,10.285930,63.870007,77.262840,72.551910,23.212212,54.540802
6.586094,9.326659,10.069115,63.616524,77.090202,72.449074,22.646912,54.249126
6.595462,9.367453,9.973689,63.431797,76.790283,71.961876,22.051777,54.193516
6.599790,9.660373,9.917196,62.915905,76.303505,71.482468,21.674726,53.801674
6.596003,9.978972,9.886785,62.411919,76.109184,70.920174,21.404222,53.486317
6.590942,10.074495,9.873377,62.185448,75.984459,70.583221,21.295732,53.328197
6.597414,10.267083,9.798240,61.744965,75.539307,69.750481,21.169531,53.090652
6.623191,10.502058,10.073777,61.213570,74.976013,68.886032,21.064232,53.316761
6.632839,10.703512,10.576513,60.133102,73.985588,67.671799,21.052210,53.797512
6.641699,10.779654,10.852729,59.497593,73.433830,66.989746,21.068378,53.970104
6.640871,10.978095,11.562449,57.925526,72.100845,65.545677,21.012894,54.183723
6.603777,11.163981,12.158992,56.139568,70.525154,64.159149,21.013790,54.079803
6.585515,11.288294,12.448155,55.260872,69.814476,63.543571,21.030315,53.992836
6.584290,11.402664,12.714481,54.449425,69.176109,62.934917,21.061449,53.898960
6.584649,11.637887,13.184956,52.899643,68.329201,61.633320,21.095724,53.762558
6.594146,11.790938,13.592272,51.408875,67.498360,60.168221,21.114489,53.731575
6.614523,11.882286,13.776187,50.678436,67.055054,59.433594,21.110529,53.646416
6.653271,12.159606,13.956107,49.060688,65.827599,58.052280,21.089178,53.825394
6.708325,12.567104,14.115827,46.239571,63.569592,55.555542,21.054226,53.624386
6.677942,12.771973,14.198113,44.171825,62.254025,53.856888,21.141714,53.360573
6.628810,12.827829,14.222888,42.080711,60.863068,52.070522,21.258434,53.127605
6.598926,12.857382,14.367981,39.985085,59.601261,50.368347,21.252405,52.534439
6.557092,12.889109,14.621507,38.047127,58.245281,48.628456,21.392311,51.847103
6.555728,12.942416,14.770908,37.102455,57.579666,47.832184,21.493410,51.544701
6.508354,13.005457,15.012447,35.325600,56.146313,46.373013,21.816692,51.306870
6.469513,13.086630,15.118934,34.502357,55.439156,45.561893,21.963091,51.399323
6.446986,13.301040,15.482841,31.907984,52.757576,42.878395,22.202805,51.544945
6.470815,13.438498,15.773753,29.839220,50.808846,40.841274,22.258692,51.984253
6.527408,13.547500,15.877773,27.908730,49.259480,38.737854,22.226469,52.795235
6.550782,13.607965,15.868457,26.944427,48.629112,37.658550,22.265202,53.180531
6.558371,13.676744,15.859883,25.997742,47.902363,36.680691,22.314993,53.641479
6.683708,13.842186,15.864660,24.327269,46.703938,34.901562,22.413177,54.563141
6.763841,13.914281,15.848664,23.554609,46.114979,34.126820,22.481075,54.809536
6.861109,14.051707,15.835458,22.305304,45.392254,32.818310,22.719143,55.149437
6.984286,14.164831,15.887815,21.337122,44.555378,31.609501,22.984573,55.739990
7.173791,14.370923,15.953315,20.015816,42.807518,29.593252,23.230598,57.013298
7.262862,14.410511,16.031357,19.434088,42.353168,28.865669,23.344868,57.311337
7.487025,14.391594,16.376741,17.129139,40.617180,26.674793,23.594419,57.981556
7.600329,14.077851,16.429720,15.765881,39.778641,25.427694,23.625408,58.457336
7.655346,13.891488,16.444069,15.132691,39.385509,24.871338,23.582922,58.751289
7.744263,13.558286,16.510977,13.934235,38.685177,23.927938,23.601120,59.584915
7.817442,13.317795,16.550024,12.887844,38.039417,23.176214,23.490404,60.467915
7.854908,13.110465,16.178040,11.509924,37.551086,22.398693,23.230635,61.193035
7.871762,13.054619,15.880810,11.144917,37.475388,22.156540,23.163300,61.211582
7.895556,12.947319,15.119887,9.968719,37.194813,21.358042,23.016825,61.085548
7.908836,12.935943,14.973629,9.765776,37.250923,21.188671,23.023439,61.126751
7.921274,12.933780,14.811315,9.579059,37.302547,21.071997,23.068615,61.237000
7.917107,12.890738,14.649105,9.378789,37.267200,20.959225,23.016401,61.303436
7.920023,12.745667,14.235446,8.803335,36.868126,20.782410,22.826956,61.394180
7.891683,12.658453,14.038135,8.492298,36.475006,20.701355,22.771132,61.138649
7.837237,12.429796,13.990570,8.300356,36.112320,20.676270,22.881691,60.823357
7.842023,12.321692,14.038161,8.216267,35.938011,20.675901,22.946220,60.601826
7.834492,12.054093,14.117270,8.122828,35.630089,20.695875,23.166128,60.080189
7.871305,11.927457,14.196218,7.999585,34.979359,20.459812,23.317312,59.586849
7.885248,11.898808,14.218441,7.955369,34.704468,20.318216,23.367285,59.456150
7.915003,11.881587,13.979053,7.695350,33.785587,19.908592,23.601269,59.016148
7.921551,11.900485,13.866824,7.580894,33.576855,19.800230,23.675682,58.857090
7.923033,11.894155,13.558414,7.378704,33.312222,19.469944,23.719816,58.460388
7.910328,11.872335,13.429799,7.291250,33.231289,19.328327,23.732956,58.182648
7.850014,11.739676,13.396153,7.061968,33.025284,19.237778,23.730913,56.934566
7.719014,11.588059,13.381128,6.952924,33.202969,19.280262,23.765945,56.219700
7.576701,11.471005,13.472128,6.877996,33.425503,19.370607,23.799496,55.498753
7.345437,11.361350,13.592973,6.828781,32.779774,19.479891,23.892227,54.430199
7.283223,11.319630,13.645160,6.826357,32.468094,19.512405,23.963425,54.150887
7.050433,11.179008,13.717432,6.787195,31.662586,19.326607,24.006777,53.607800
6.820474,11.015641,13.700358,6.721091,30.970482,19.002342,23.952837,53.585964
6.572536,10.845958,13.595193,6.445537,30.050430,18.636982,23.758175,53.497272
6.490921,10.808739,13.586609,6.327498,29.644814,18.432461,23.674402,53.258030
6.362943,10.792583,13.715212,6.162111,28.938766,17.997173,23.451454,52.896786
6.312289,10.802856,13.797108,6.090126,28.632521,17.798981,23.323689,52.916382
6.076025,10.893875,13.675811,5.855249,27.420937,17.222776,22.911345,53.042149
5.856731,11.115571,13.520934,5.589302,26.008589,16.644670,22.864912,52.824947
5.682777,11.262445,13.376747,5.403202,24.576195,16.003788,23.018627,51.828854
5.602979,11.408323,13.274203,5.318246,23.644238,15.615780,23.135584,50.931774
5.559752,11.448314,13.155289,5.246333,22.633955,15.249232,23.282612,50.009174
5.573355,11.530335,13.005820,5.129022,21.768372,15.030707,23.345285,49.168774
5.587950,11.586463,12.615169,5.043290,21.047180,14.850087,23.414778,48.451462
5.599246,11.652223,12.476789,4.985644,20.416267,14.888979,23.502838,48.228706
5.586387,11.662292,12.354974,4.916329,19.965021,14.994662,23.554197,48.112694
5.562134,11.609382,12.121675,4.743718,18.831507,15.541184,23.669325,47.267551
5.528307,11.639731,11.995573,4.655102,18.193512,15.965437,23.884375,46.541378
5.504622,11.754439,11.868965,4.588864,17.878401,16.556868,24.017502,46.061817
5.495381,11.828577,11.788520,4.523082,17.773643,16.998163,24.060436,45.910458
5.500297,11.896787,11.631535,4.449742,17.724985,17.394880,24.082594,45.912399
5.418180,12.143338,11.285570,4.207963,17.733648,18.811934,24.130312,45.940678
5.314802,12.126204,11.593917,4.184915,17.980404,20.514788,24.156258,45.686619
5.268069,12.162352,11.876808,4.208757,18.224195,21.833704,24.168137,45.331184
5.238429,12.177834,12.001136,4.218190,18.296921,22.450298,24.134981,45.191917
5.211158,12.170901,12.127368,4.226869,18.518559,23.196346,24.036455,45.069763
5.137740,12.171512,12.486506,4.352961,19.286795,26.836853,23.640203,45.445038
5.145325,12.170404,12.414307,4.475997,20.128124,28.535484,23.496506,45.578297
5.154750,12.161800,12.372066,4.551894,20.590902,29.369728,23.442160,45.625179
5.174339,12.116311,12.315302,4.631209,20.892303,30.144203,23.407185,45.780727
5.192807,12.110067,12.263076,4.704530,21.117266,30.854515,23.349457,45.942558
5.210473,12.119383,12.145384,4.771489,21.450409,31.550716,23.400570,45.981636
5.266766,12.215150,11.965572,4.871570,22.181473,32.740414,23.535881,46.018974
5.286829,12.245541,11.890729,4.941314,22.700016,33.425190,23.662296,45.930145
5.313588,12.309124,11.732738,5.083315,23.957855,34.981030,23.796486,45.732449
5.380011,12.447538,11.523521,5.521195,25.885786,37.680866,23.952913,45.705711
5.414283,12.565574,11.463486,6.020236,27.078255,39.545856,24.021851,45.258560
5.435415,12.623183,11.489833,6.304401,27.734880,40.494843,24.015200,45.066345
5.384886,12.648550,11.442073,6.779068,29.197380,42.340729,24.117912,44.922279
5.372356,12.687935,11.417886,6.985081,29.948843,43.206318,24.230961,44.744980
5.292452,12.665843,11.436947,7.434842,31.596672,45.151154,24.501343,44.271473
5.174601,12.608312,11.462983,7.946226,33.139759,47.094761,24.785549,43.721989
5.138812,12.546015,11.474462,8.221232,34.010784,47.981438,24.884369,43.568375
5.057642,12.424049,11.462672,8.766302,35.789181,49.712963,24.985401,43.471256
4.937902,12.320897,11.469258,9.791823,38.797596,52.701977,24.865017,44.073154
4.893621,12.178737,11.602012,10.645970,40.627796,54.856148,25.032013,44.869209
4.897809,12.132836,11.696962,11.125268,41.526478,55.986378,25.106089,45.328499
4.891936,12.063824,12.041057,12.797165,44.074474,59.146584,25.601158,46.619564
4.889780,11.990472,12.293165,14.008395,46.055298,61.434620,26.038897,47.410332
4.906837,11.896020,12.319885,14.649786,47.139393,62.535435,26.197706,47.788166
4.940089,11.775891,12.373783,15.817670,49.452499,64.526726,26.362745,48.313599
4.962399,11.711844,12.398668,17.266973,51.832123,66.318367,26.576374,48.808071
4.998979,11.725181,12.608831,19.088314,54.239426,67.926392,26.642937,49.324818
5.124943,11.764805,12.934729,21.113997,56.577854,69.462044,26.796528,49.754147
5.335803,11.739312,13.516093,23.961182,59.651649,71.328674,27.142914,50.122005
5.442530,11.704601,13.663023,24.883890,60.615185,71.929543,27.245295,50.193901
5.766749,11.652665,13.894100,26.848326,62.623558,73.232216,27.397787,50.262535
6.117506,11.690193,13.903582,28.981184,64.639153,74.294785,27.679050,50.589596
6.280993,11.732099,13.934952,30.102934,65.688652,74.799362,27.824326,50.988369
6.666582,11.767340,13.935420,32.264950,67.708420,75.412292,28.288225,52.116714
7.187846,11.789234,14.010294,34.524036,69.442528,76.116905,28.821686,53.447647
7.716935,11.888815,14.107585,36.977425,70.846153,76.577393,29.373657,54.624481
8.470315,12.102964,14.311617,40.372219,72.914085,76.659485,30.053337,56.275768
8.871368,12.326482,14.539798,42.504475,74.008369,76.706039,30.402018,57.295910
9.213495,12.544135,14.686077,44.784576,75.211578,76.948059,30.687273,57.928341
9.656719,12.748893,14.988077,46.929794,76.134773,77.287041,30.794842,58.719364
9.844751,12.791620,15.095626,47.952385,76.592529,77.555534,30.913925,59.082176
10.208203,12.919787,15.285612,49.878944,77.154671,77.756378,31.142956,59.708210
10.452587,12.992516,15.369370,50.748356,77.427551,77.786789,31.241066,59.955250
10.917273,13.157547,15.648010,52.412193,78.019104,77.709511,31.365530,60.178551
11.306099,13.261513,15.988662,53.581429,78.848335,77.546135,31.476007,60.345989
11.848701,13.285560,16.446367,55.648155,80.015572,77.027679,31.970253,60.485859
12.155863,13.186944,16.726326,57.113586,80.849014,77.050453,32.407269,60.658386
12.428036,13.085588,16.929379,58.597336,81.689194,77.098244,32.869091,60.907879
12.563703,13.062084,17.013739,59.396107,82.239014,77.173271,33.120087,61.020367
12.861130,13.089519,17.162760,60.774456,83.072350,77.622841,33.487461,61.303055
13.035318,13.158564,17.260860,61.592640,83.402985,77.931908,33.694084,61.311077
13.411181,13.274261,17.434151,63.285759,83.950920,78.204140,34.123299,61.311466
13.751934,13.380853,17.574507,64.914589,84.373802,78.069283,34.596600,61.044853
14.155773,13.502970,17.710056,66.903099,85.368805,77.470993,34.654194,60.882805
14.419617,13.556508,17.751305,68.168816,85.947762,77.213455,34.603821,61.070858
14.526156,13.536546,17.764996,68.664474,86.240250,77.130638,34.568932,61.150982
14.751788,13.564774,17.841093,69.558868,86.562737,76.851173,34.562527,61.490322
14.858108,13.566482,18.029867,70.004311,86.626137,76.685593,34.605553,61.559872
15.057180,13.574536,18.524265,70.920784,86.714020,76.532829,34.597195,61.570797
15.244205,13.632936,19.009066,71.596764,86.850624,76.167389,34.426094,61.601162
15.356908,13.574785,19.286978,71.805138,87.010796,75.793671,34.288231,61.655724
15.411799,13.421406,19.522089,71.711044,86.877357,75.397911,34.182331,61.860252
15.475960,13.220012,19.749088,71.494919,86.545357,74.657158,34.219063,62.185200
15.356620,13.076358,19.920273,71.541107,86.562057,74.141228,34.320244,62.512741
15.214575,12.963306,20.237194,71.421181,86.547630,73.429932,34.479698,62.966801
15.158664,12.878568,20.337284,71.214897,86.542023,73.100449,34.474449,63.042625
15.102764,12.798876,20.388575,70.878754,86.515747,72.779320,34.414238,62.940353
14.942080,12.637130,20.589092,70.104500,86.226631,72.206184,34.061497,62.336132
14.673010,12.561949,20.698458,69.181427,85.828217,71.550117,33.781513,61.397930
14.521947,12.486010,20.747643,68.667160,85.650078,71.230247,33.671135,60.971390
14.383197,12.395886,20.866570,68.050011,85.510994,70.941086,33.539558,60.721138
13.990061,12.285591,21.091612,66.263611,84.596596,70.474266,33.241714,60.071915
13.908022,12.265923,21.130781,65.673569,84.077950,70.248558,33.246513,59.956757
13.807933,12.215252,21.314846,64.317917,83.073273,69.688271,33.298443,59.816818
13.759877,12.197877,21.508644,63.606983,82.587936,69.302330,33.377373,59.741680
13.532193,12.081684,21.653711,62.302570,81.679108,68.631805,33.560200,59.481960
13.329245,12.080732,21.813963,61.052372,80.839050,67.825409,33.414425,59.153969
13.033847,12.110500,22.015760,59.829952,79.836853,66.899124,33.206619,58.765144
12.846027,12.089121,22.050982,59.265236,79.259705,66.356224,33.111408,58.555058
12.675086,12.069452,22.073265,58.693409,78.621231,65.782074,33.024902,58.361942
12.517813,12.112374,22.201466,58.167309,77.887054,65.212914,32.978752,58.289684
11.981832,12.461323,22.509741,55.558811,74.768814,62.711437,32.501175,59.296722
11.766547,12.687957,22.503839,54.017933,72.975624,61.100807,31.861858,59.868046
11.655249,12.811857,22.449141,53.164227,72.137962,60.297569,31.501738,60.057804
11.445660,12.980135,22.396519,51.489262,70.361977,58.596252,30.822189,60.551048
11.325705,13.020867,22.429937,50.696980,69.460861,57.667683,30.456675,60.803646
11.020084,13.021626,22.665026,48.899246,67.727005,55.720512,29.832611,61.319256
10.717483,12.976712,22.936197,46.979321,66.109039,53.915863,29.212126,61.886208
10.495790,13.089640,23.176424,45.033783,64.617317,52.350540,28.512140,62.570263
10.413088,13.212705,23.311316,44.018482,63.772671,51.655487,28.201471,62.833866
10.256514,13.439225,23.491850,41.113194,61.213127,49.247040,27.438591,63.130981
10.146480,13.549826,23.558096,39.055378,59.528637,47.523979,26.988821,63.194073
10.088651,13.586251,23.557415,38.078876,58.622898,46.633389,26.696642,63.136948
10.035701,13.680486,23.234470,36.121296,56.907547,44.736629,26.101408,63.217854
10.039501,13.904347,22.747078,34.240326,55.153133,42.731773,25.634903,63.516788
10.075435,13.975569,22.540232,33.263523,54.184559,41.779285,25.449627,63.809334
10.135991,14.140928,22.280588,31.614225,52.356731,40.081394,25.220768,64.329185
10.237106,14.308664,22.102484,29.962803,50.391846,38.593868,25.012722,64.876266
10.268735,14.387359,21.947554,29.176788,49.649124,37.869732,24.892773,65.049995
10.332167,14.583450,21.632530,27.022146,47.854179,35.689484,24.183090,65.559380
10.365674,14.854485,21.427345,25.481541,46.401520,34.104351,23.564659,65.587265
10.324671,15.352179,21.090349,23.852915,44.979492,32.738632,22.994455,65.713509
10.279012,15.585915,20.896217,23.105980,44.169872,32.012398,22.705786,65.793144
10.268849,16.036671,20.505232,21.773167,42.600449,30.636181,22.162605,65.913971
10.277987,16.238224,20.295202,21.189947,41.941593,30.000954,21.990166,66.122910
10.250508,16.526091,20.025078,19.972433,40.711319,28.639656,21.492264,66.772369
10.242712,16.781416,19.823812,18.756392,39.769840,27.302296,21.120943,66.874420
10.190337,16.915215,19.775547,17.715242,38.843304,25.876171,20.853474,66.734962
10.068000,17.163429,19.626484,16.484076,37.667740,24.038498,20.216015,66.263016
10.021767,17.395979,19.237638,15.617606,36.939095,22.920685,19.803230,65.989616
10.086341,17.606480,18.814619,14.831534,36.226395,21.865919,19.420845,66.078987
10.143612,17.720446,18.397585,14.089500,35.684582,21.000366,19.370310,66.224998
10.180105,17.762854,17.978416,13.404805,35.156212,20.280100,19.406197,66.312798
10.189881,17.775951,17.813421,13.062064,34.886036,19.952097,19.476799,66.373161
10.194949,17.809589,17.425121,12.461934,34.377567,19.372108,19.583473,66.124207
10.223906,17.805246,17.222284,12.182766,34.242531,19.153904,19.610115,65.856979
10.254014,17.702555,16.848162,11.707998,33.983101,18.868223,19.686752,65.173615
10.256052,17.570734,16.424877,11.118658,33.520027,18.482330,19.793592,64.436127
10.310288,17.568649,16.244125,10.772587,33.289845,18.166016,19.864279,63.928120
10.474126,17.658503,16.066753,10.592953,33.110676,17.896820,20.016319,63.630890
10.669309,17.821333,15.693268,10.338650,32.897400,17.752357,20.163723,63.503010
10.749877,17.900644,15.508483,10.164492,32.718979,17.712454,20.285652,63.343437
10.809114,17.930271,15.209331,9.860957,32.108353,17.644598,20.579226,62.906109
10.884881,17.833872,14.955631,9.615714,31.415102,17.563398,20.838339,62.363506
10.881070,17.769217,14.829348,9.503952,31.088573,17.517296,20.960726,62.217686
10.903878,17.660446,14.591228,9.296961,30.511749,17.431389,21.198650,62.195866
10.849983,17.841816,14.234841,8.935604,29.132280,17.114656,21.252773,61.671734
10.712357,17.872324,14.107911,8.755911,28.584185,16.961561,21.292957,61.078575
10.627589,17.819563,14.008118,8.653563,28.393394,16.917597,21.354589,60.833366
10.412584,17.729288,13.736499,8.398583,27.996111,16.824072,21.456329,60.152519
10.226084,17.615423,13.354458,8.058109,28.053976,16.635590,21.478241,59.459530
10.098286,17.584757,13.172406,7.896751,28.297417,16.513235,21.466064,59.187840
9.856712,17.539352,12.869022,7.614718,28.246370,16.280329,21.410791,58.457821
9.754932,17.552620,12.673218,7.470571,28.086069,16.165771,21.431923,58.249260
9.569828,17.589153,12.295326,7.202909,27.746319,15.918657,21.479563,58.077862
9.357885,17.255362,11.643760,6.535504,26.877066,15.603101,21.616955,57.494637
9.314322,17.142206,11.508044,6.378760,26.683512,15.573053,21.681322,57.387234
9.193130,16.911331,11.384211,6.140938,26.050415,15.568203,21.856466,57.059822
9.130464,16.821436,11.292790,6.033997,25.771307,15.558057,21.940063,56.683361
9.059686,16.726063,11.173230,5.934763,25.554798,15.548759,22.031004,56.300205
8.944852,16.606201,10.921926,5.729641,24.990471,15.345271,22.177532,55.600903
8.893571,16.564169,10.779250,5.624089,24.726864,15.226987,22.253103,55.339714
8.778538,16.478491,10.520702,5.358745,24.344135,15.014371,22.412807,55.047264
8.499603,16.097467,10.065683,4.857285,23.755123,14.681129,22.795162,54.927631
8.365562,15.995899,9.977213,4.726597,23.636999,14.633052,22.938559,54.821629
8.206576,15.784011,9.816071,4.494169,23.193884,14.513694,23.073856,54.565918
8.079941,15.525713,9.679667,4.313254,22.659260,14.421017,23.124460,54.346409
7.984352,15.337595,9.533043,4.179114,22.206711,14.411359,23.072090,54.525070
7.900595,15.152584,9.345510,4.061621,21.808071,14.433904,23.052422,54.847019
7.790465,15.099201,9.082013,3.952053,21.285700,14.434449,23.047865,54.986908
7.693397,15.106510,8.794118,3.860870,20.952917,14.438032,23.049763,54.731777
7.646600,15.065890,8.682025,3.826446,20.766705,14.453773,23.074692,54.358826
7.492735,14.957020,8.252846,3.774172,20.756643,14.721253,23.138050,53.252506
7.288580,14.819840,7.991868,3.637585,20.943684,15.277356,23.123302,52.117668
7.064378,14.705342,7.733762,3.521967,21.201097,15.842573,23.153118,50.805500
6.871384,14.727071,7.475942,3.436018,21.530249,16.554232,23.072405,49.606571
6.792293,14.763257,7.334989,3.455129,21.820942,16.961563,23.018597,49.068230
6.693021,14.807698,7.211586,3.498886,22.207939,17.332773,22.973103,48.561226
6.515540,14.857566,7.040452,3.588551,22.890572,18.050243,22.993107,47.704792
6.316188,14.866207,6.937456,3.681139,23.585897,18.859938,23.115551,46.717571
6.108759,14.683934,6.860431,3.717102,24.265497,19.674988,23.242823,45.831211
6.023924,14.577768,6.819368,3.732957,24.615963,20.096018,23.298845,45.428082
5.853622,14.353693,6.621314,3.835114,25.611534,21.549297,23.476675,44.319225
5.797942,14.251603,6.540269,3.895287,26.212002,22.530161,23.527725,43.667309
5.776037,14.173140,6.441183,3.977532,27.073072,23.834381,23.600021,43.150475
5.810850,14.105974,6.419437,4.130837,27.401844,25.061785,23.699570,42.730114
5.828674,14.064856,6.485831,4.210864,27.499367,25.617405,23.740822,42.550701
5.858276,14.019563,6.692769,4.363480,27.718906,26.843142,23.753052,42.152542
5.910329,13.846001,6.933899,4.471425,28.253521,28.126225,23.881342,41.521046
5.986036,13.653751,7.128132,4.540645,28.784149,29.650610,24.099871,41.426468
6.005505,13.571980,7.249214,4.580759,29.069220,30.482859,24.097315,41.577564
6.027342,13.384674,7.476835,4.703843,30.290321,33.020771,24.247698,42.200317
6.090459,13.336637,7.514978,4.803301,31.417641,34.733929,24.314072,42.611233
6.127947,13.282900,7.552463,5.229212,32.574162,36.394043,24.302921,42.943096
6.143433,13.210592,7.511943,5.447689,33.239758,37.323383,24.276445,43.073013
6.228925,13.110189,7.443555,5.905667,34.508492,39.205685,24.258455,43.133732
6.378155,12.991795,7.426229,6.489348,35.885971,41.380085,24.176947,43.097252
6.539025,12.840210,7.415773,7.540854,37.513130,43.691280,24.100634,42.851688
6.634713,12.774542,7.407516,8.202086,38.452595,44.768452,24.003948,42.590038
6.842863,12.709854,7.443017,9.665062,40.213215,47.038345,23.709217,42.469036
7.194173,12.796530,7.624675,12.103368,43.333801,50.240486,23.365507,42.850018
7.410016,12.834727,7.993313,13.785023,45.715061,52.193539,23.419882,42.688557
7.509586,12.844356,8.151754,14.583743,46.972679,53.111549,23.465027,42.680645
7.693613,12.758106,8.434962,16.176516,49.523785,54.845924,23.700216,42.757465
7.847228,12.620432,8.797379,18.056908,51.985264,56.608044,23.814739,43.162468
7.921210,12.561505,8.979860,18.891590,53.171928,57.561451,23.930166,43.426941
8.058699,12.434806,9.268804,20.780464,55.418430,59.336643,24.184017,44.247906
8.202248,12.280836,9.582088,22.699001,56.891609,61.182678,24.435074,45.149509
8.449274,12.224638,9.966166,24.749271,58.320103,62.478550,24.659605,46.052631
8.824590,12.218087,10.572906,27.917061,60.523495,63.832390,25.032387,47.801823
9.066569,12.143985,10.936633,29.977863,62.009304,64.588356,25.370152,48.968193
9.283844,12.021882,11.168542,32.074886,63.352146,65.700874,25.645220,49.769485
9.529629,11.968547,11.336048,34.106216,64.937393,67.053436,25.813046,50.224262
9.630775,11.948738,11.387423,35.178207,65.797318,67.533867,25.885958,50.423218
9.750237,11.898446,11.456145,36.316414,66.692795,67.986534,26.032045,50.768936
10.193596,11.846125,11.658134,39.236732,69.495293,69.059196,26.425894,51.909908
10.663431,11.807899,11.747793,40.859547,71.436623,69.796066,26.722507,52.798119
10.865327,11.783361,11.775432,41.585453,72.317589,70.140068,26.855255,53.233341
11.375813,11.723894,11.947269,44.365334,74.393608,70.878143,27.169395,54.018234
11.714149,11.723687,12.033049,46.495956,75.659760,71.123055,27.333200,54.383396
11.861425,11.719564,12.050289,47.617214,76.378578,71.332100,27.457813,54.592552
12.153906,11.647815,12.075622,49.862377,77.975044,71.809952,27.690481,54.897099
12.282218,11.613692,12.083492,50.922710,78.620918,72.019447,27.769629,55.089684
12.519290,11.580670,12.112623,53.030071,79.920120,72.313454,27.806543,55.059139
12.671505,11.579365,12.100838,54.992798,81.225243,72.376450,27.985880,54.745930
12.770432,11.667483,12.136683,55.898766,81.854103,72.357208,28.019547,54.554852
12.842443,11.747757,12.210262,56.788116,82.412933,72.175964,28.128317,54.459068
13.084208,12.177547,12.823902,59.315536,84.118622,71.739922,28.644995,54.279495
13.188567,12.347058,13.155812,60.010582,84.604324,71.766876,28.879034,54.305790
13.299839,12.503016,13.461185,60.782429,85.119530,71.728065,29.101984,54.503513
13.482670,12.799362,14.028514,62.293678,86.093002,71.525101,29.531765,54.953289
13.597411,13.027697,14.493601,64.042732,86.945160,70.977219,29.831112,55.383480
13.640327,13.112038,14.724267,64.850769,87.468262,70.709053,29.979221,55.615238
13.663694,13.243695,15.241865,66.143295,88.185638,69.914276,30.150789,56.444130
13.748052,13.326510,15.702033,67.166733,88.748917,69.274948,30.304440,57.139755
13.816881,13.386572,16.680304,68.349388,89.748245,68.267731,30.780640,57.954430
13.835382,13.383282,16.776165,68.527153,89.686073,68.165260,30.778252,58.016560
13.840454,13.434321,16.944532,69.243996,89.588905,68.242706,30.679575,58.263668
13.835552,13.539791,17.018757,69.755913,89.519928,68.376762,30.589050,58.360046
13.874531,13.688949,17.209787,70.068596,89.346283,68.382217,30.500698,58.516800
13.923373,13.823169,17.418596,70.218559,89.052696,68.468529,30.506542,58.596272
14.100060,14.094152,17.749935,70.813538,88.839851,68.322929,30.514799,58.806007
14.284771,14.386548,18.059114,71.297531,88.751526,68.235153,30.424360,58.899532
14.508404,14.699813,18.294125,71.513290,88.939789,67.895409,30.348347,58.974964
14.727521,14.977663,18.492237,71.502731,89.000099,67.749168,30.280260,58.941372
15.003620,15.109635,18.871168,71.667603,89.020683,68.209000,29.953096,58.779789
15.068672,15.115960,18.993158,71.565262,88.969177,68.346474,29.838665,58.882740
15.285951,15.155668,19.254753,71.463890,88.988724,68.547592,29.751608,59.251541
15.367611,15.190269,19.387337,71.269325,88.996315,68.595917,29.759676,59.442753
15.507425,15.231102,19.628859,71.065102,89.004822,68.496536,29.710636,59.644966
15.653620,15.418243,19.848545,70.542511,88.754112,68.579559,29.640728,60.111652
15.708925,15.465866,20.041273,70.241821,88.576912,68.651749,29.580151,60.287807
15.742693,15.549993,20.440403,69.758904,88.064415,68.641922,29.542488,60.416817
15.532944,15.592765,20.882477,69.401688,87.515137,68.686714,29.474556,60.371628
15.331437,15.683125,21.606794,69.016418,86.828247,68.902878,29.253405,59.770756
15.164392,15.781808,22.131498,68.202904,86.140518,68.912842,29.120535,59.507423
15.031629,15.835144,22.546677,67.131416,85.463898,69.029114,28.971582,59.476799
14.990030,15.866042,22.841002,66.577431,85.100304,68.863007,28.878998,59.542805
14.893359,15.922882,23.517574,65.324471,84.199142,68.478149,28.692337,59.452335
14.824056,15.990146,23.844168,64.791901,83.776367,68.164192,28.590868,59.367519
14.630099,15.994073,24.694904,63.051186,82.167038,67.147575,28.077971,58.849892
14.477922,15.786971,25.063637,61.979477,80.777252,66.581299,27.703745,58.127079
14.345181,15.518645,25.186634,60.908466,79.186653,66.100685,27.443516,57.440506
14.003051,15.100460,24.876022,59.162151,76.819183,64.759956,26.918427,56.688171
13.832431,14.939316,24.839739,58.022251,75.159988,63.849537,26.607044,56.227215
13.692984,14.838759,24.984234,56.636631,73.289520,63.008595,26.279991,56.232849
13.606977,14.908300,25.021885,54.969944,71.344093,62.043133,26.006523,56.314983
13.560441,15.099503,25.116903,53.132294,69.908119,61.224945,25.830019,55.962448
13.534466,15.223407,25.122879,52.254406,69.242058,60.697292,25.786886,55.901207
13.453481,15.444439,24.996592,50.470673,67.864120,59.614075,25.566032,55.807865
13.389164,15.600158,24.787880,48.764801,66.481712,58.673813,25.460915,55.970543
13.344924,15.804814,24.583860,47.034401,65.195602,57.481300,25.415794,56.251087
13.568143,15.865626,24.212490,44.044964,63.047272,55.470848,25.497551,56.903038
13.730126,15.757850,23.723156,41.217300,61.246651,53.429523,25.468382,57.625793
13.770111,15.619420,23.430931,39.189201,59.976578,52.008118,25.426687,57.808025
13.689437,15.420811,23.122770,37.316139,58.461208,50.596157,25.267775,57.869865
13.573512,15.234620,22.726549,35.503338,56.799316,49.074699,25.164083,58.363674
13.435459,15.054543,22.234222,33.493332,55.340317,47.433327,25.127609,58.719723
13.382277,14.984275,21.965277,32.510696,54.678257,46.690189,25.153809,58.639004
13.238991,14.895890,21.483057,30.731869,53.196056,45.060627,25.118301,58.394268
13.099412,14.832991,21.066767,29.096144,51.442081,43.195210,25.116426,58.586754
12.722216,14.567295,20.320179,25.839334,48.126633,39.883392,25.149317,59.045033
12.645569,14.409976,19.779303,24.469919,47.300026,38.640987,25.309008,59.267273
12.631031,14.380301,19.494112,23.854145,46.824722,38.095757,25.487797,59.425644
12.613196,14.368557,19.168043,22.608629,46.089794,36.838543,25.840639,59.899460
12.602086,14.415490,18.774284,21.234171,45.094818,35.315430,26.291885,60.684303
12.604417,14.379458,18.260271,20.060530,44.245697,34.016312,26.862028,61.460026
12.612624,14.381297,18.008696,19.544905,43.955566,33.437923,27.125036,61.913055
12.582174,14.377449,17.582567,18.508640,43.612492,32.193424,27.646498,62.522762
12.530012,14.375391,17.317810,18.014374,43.512814,31.632355,27.866032,62.867634
12.548342,14.408598,16.049360,16.309431,43.231499,29.999861,28.868387,64.481308
12.583519,14.407639,15.751044,15.918537,43.180969,29.664192,29.114445,64.925896
12.713082,14.484385,15.181328,15.170296,43.080170,28.885157,29.591339,65.673645
12.789727,14.588012,14.750871,14.538168,43.126385,28.149256,29.850637,66.340622
12.810143,14.662195,14.697883,14.218900,43.122410,27.770895,29.862087,66.479607
12.841886,14.766554,14.589670,13.697817,43.555187,27.143351,29.893454,66.733414
12.868073,14.869318,14.447218,13.129299,43.887005,26.481108,29.984419,67.381088
12.861363,14.870947,14.252743,12.782431,44.047974,26.230320,29.997816,67.669174
12.798487,14.885849,13.821338,12.160241,44.286922,25.758263,30.020552,67.730316
12.768106,14.762322,13.409592,11.622844,44.348835,25.256464,30.095560,67.440102
12.693254,14.524674,12.949924,11.141799,43.879555,24.769575,30.111044,67.232559
12.600517,14.263124,12.608316,10.727088,43.307899,24.396721,30.047474,66.816666
12.538044,14.000871,12.365505,10.428192,42.687435,23.869617,30.040907,66.233276
12.474577,13.865189,12.360108,10.177133,42.230545,23.202427,29.955093,65.674095
12.419602,13.802623,12.444360,10.058343,41.997810,22.922140,29.895355,65.473328
12.175233,13.770555,12.618668,9.805150,41.649891,22.470612,29.777609,64.733078
12.009229,13.766300,12.677042,9.693526,41.504051,22.265064,29.643337,64.240410
11.824774,13.778950,12.679234,9.539912,41.343300,22.056198,29.511255,63.656918
11.357131,13.836017,12.574929,9.017942,40.712681,21.423475,29.426064,62.054008
11.198534,13.831696,12.564205,8.805898,40.400776,21.092800,29.645775,62.048458
11.075830,13.789680,12.601969,8.729735,40.286160,21.026392,29.761803,61.953861
10.837454,13.771424,12.662360,8.549088,39.879784,20.947512,29.963707,61.496368
10.736053,13.754669,12.687264,8.485986,39.632568,20.898775,30.019325,61.323318
10.449583,13.695882,12.783768,8.314659,39.013119,20.746136,30.085907,61.060650
10.337925,13.714546,12.793775,8.234603,39.006039,20.768169,30.055216,60.874962
10.157838,13.783708,12.811452,8.069428,39.209545,20.786301,29.845068,60.557438
10.054479,13.920760,12.808352,7.914765,39.257645,20.644695,29.634590,60.344673
9.803728,14.158381,12.815275,7.764633,38.502972,20.223503,29.082172,59.839478
9.688439,14.182829,12.817225,7.736124,38.310253,20.104500,28.753845,59.622463
9.481008,14.216704,12.572781,7.748478,37.618443,19.810760,28.192606,59.060715
9.246307,14.305654,12.485443,7.662420,36.984554,19.553341,27.596045,58.182072
8.984125,14.348093,12.444151,7.444325,36.387287,19.410789,26.907532,57.279366
8.869120,14.364833,12.384746,7.340080,36.188667,19.441395,26.538019,56.716934
8.680292,14.456598,12.224169,7.112798,35.309723,19.562599,25.846817,55.702320
8.603901,14.517041,12.067690,7.018852,34.738777,19.820198,25.566410,55.149693
8.185941,14.867504,11.468220,6.829627,32.861340,21.183567,24.426643,52.570694
8.084992,14.919164,11.365318,6.785222,32.447186,21.507294,24.183249,51.889202
7.769175,14.902350,11.128329,6.740839,31.385683,22.487265,23.453684,50.382946
7.628884,14.723976,10.490011,6.706896,30.176569,23.354256,22.860401,49.490158
7.578001,14.607455,10.063069,6.599536,29.036684,24.021938,22.565783,48.873703
7.555436,14.549901,9.859456,6.541760,28.520496,24.367582,22.429672,48.413727
7.523691,14.484417,9.476168,6.418172,27.536060,24.913649,22.214645,47.500568
7.507086,14.511390,9.316341,6.376012,27.163033,25.353922,22.112762,47.091255
7.441347,14.599873,9.087068,6.352047,26.662958,26.476105,21.926294,46.284077
7.265553,14.635752,8.700448,6.447577,26.549242,28.935663,21.822611,44.900436
7.199353,14.668043,8.609377,6.474571,26.499544,29.511892,21.776590,44.682945
7.096575,14.688398,8.380949,6.511380,26.541203,30.927490,21.635859,44.442764
6.985880,14.583148,7.921652,6.502074,26.611713,32.228256,21.489420,43.911831
6.941720,14.477075,7.671411,6.486926,26.573080,32.897423,21.394642,43.638542
6.906654,14.373780,7.441178,6.472990,26.523182,33.603004,21.272564,43.478161
6.839108,14.186991,7.034466,6.464170,26.559118,35.112873,21.064455,43.517944
6.735008,13.979872,6.669164,6.452805,26.621214,36.841450,20.872095,43.385880
6.599088,13.794909,6.324596,6.443186,26.967590,38.749813,20.641562,42.861588
6.528226,13.706795,6.059434,6.435043,27.879843,40.936363,20.440889,41.999302
6.508835,13.701130,5.911831,6.411860,28.312683,41.869606,20.328110,41.595360
6.498683,13.657301,5.776031,6.390530,28.714027,42.823875,20.183535,41.135933
6.453972,13.440385,5.162948,6.108962,30.610125,47.386326,19.940567,41.078758
6.453411,13.225832,4.977159,6.070572,31.522453,49.226898,20.056154,40.926079
6.452306,13.077658,4.985710,6.165931,32.117115,50.215263,20.233101,40.716110
6.423536,12.761144,5.005168,6.437056,33.337158,52.263241,20.734833,40.095257
6.382962,12.440286,5.043607,6.913923,34.654503,54.387848,21.149466,39.375107
6.332905,12.180230,5.109932,7.690382,35.964859,56.595985,21.551310,38.854034
6.351618,12.054634,5.152772,8.243167,36.759212,57.769634,21.805584,38.716007
6.575720,11.420813,5.046405,10.855833,40.314793,62.065823,22.649874,38.379257
6.676085,11.370286,5.124861,11.771624,41.214855,62.923035,22.916780,38.442356
6.883092,11.225492,5.490638,13.795698,42.740269,64.383514,23.433529,38.626274
7.232018,11.045042,5.821882,16.005789,44.325497,65.430199,24.117025,38.793522
7.413528,10.913570,5.974387,17.105562,45.182121,65.787735,24.506546,38.973759
7.582876,10.765973,6.114698,18.234493,46.113087,66.195610,24.910616,39.192043
7.728679,10.663990,6.243791,19.366060,47.090611,66.617744,25.260515,39.397106
7.969728,10.523384,6.514834,21.792801,49.182343,67.537224,25.804823,39.763184
8.187027,10.495001,6.937616,24.160454,51.314537,68.587212,26.347624,40.069706
8.378953,10.559586,7.677286,27.839417,54.488010,70.323143,27.184498,40.392452
8.476280,10.613416,7.961465,29.119999,55.546841,70.919037,27.398315,40.480740
8.634982,10.652161,8.205350,30.436956,56.577675,71.592743,27.549276,40.465080
8.931803,10.684173,8.636176,32.855438,58.363136,72.594559,27.802713,40.526314
9.068161,10.715670,8.826112,33.972710,59.253651,73.195457,27.917751,40.679295
9.216601,10.701323,8.994713,35.058956,60.072968,73.847580,28.089710,40.932419
9.481199,10.573712,9.306753,36.954296,61.701488,74.878761,28.432028,41.435818
9.694228,10.432999,9.600656,38.946270,63.341396,75.993835,28.820951,41.974598
9.834920,10.401831,9.775265,40.057850,64.083557,76.352699,29.019569,42.200905
10.195323,10.354442,10.323943,43.356976,66.725136,77.533257,29.533779,42.583237
10.296906,10.412569,10.555211,44.277020,67.546806,77.825188,29.678383,42.493019
10.634109,10.518112,11.001256,46.247211,68.975121,78.421135,29.893650,42.616405
10.924531,10.551082,11.294282,47.292522,69.813759,78.738342,30.048655,42.696480
11.979847,10.678946,12.044167,50.361244,72.707497,79.300591,30.444248,43.193790
12.309746,10.744499,12.308559,51.419357,73.615311,79.511848,30.578129,43.275101
12.896012,10.896163,12.995188,53.683628,75.495247,79.871574,30.935951,43.473850
13.418125,11.086964,13.645084,56.086639,76.993904,79.823959,31.277840,43.778141
13.659507,11.156174,13.941104,57.343594,77.517250,79.745804,31.369884,43.881344
14.244191,11.315639,14.643732,60.868320,79.312386,79.108269,31.765011,44.142212
14.411382,11.387782,14.886014,62.042091,79.982765,78.838562,32.017696,44.188248
14.584361,11.466492,15.108924,63.272099,80.517838,78.610252,32.321323,44.092293
14.757461,11.566935,15.314009,64.517357,81.086296,78.418846,32.513844,43.974380
15.092387,11.802572,15.676298,66.917671,82.238449,78.033188,32.793720,43.820911
15.363757,12.042148,15.933132,68.860733,82.753899,77.681412,32.842304,43.655613
15.471141,12.147631,15.964653,69.777824,82.858932,77.440659,32.786228,43.631119
15.671288,12.444641,16.015984,71.402115,82.982880,77.113892,32.627583,43.806007
15.840876,12.760067,16.093456,72.948700,82.966240,76.685646,32.528191,44.035656
15.957085,12.891377,16.124798,73.547653,82.821968,76.519463,32.455757,44.123112
16.514545,13.446428,16.414646,74.819641,81.747475,75.783981,31.884560,44.303932
16.712730,13.507635,16.393757,74.474876,81.608200,75.505180,31.679182,44.376030
16.779278,13.506950,16.210978,74.143517,81.532166,75.389442,31.604712,44.358646
16.756487,13.485815,15.921070,73.461349,81.522522,75.509766,31.479710,44.271355
16.760525,13.508396,15.810251,72.531281,81.516518,75.560806,31.168539,44.103725
17.133602,13.593091,15.760607,71.671013,81.488075,75.493225,30.967970,43.926598
17.592194,13.648252,15.690492,70.806000,81.189346,75.246124,30.908934,43.808769
17.790844,13.639899,15.591382,70.340790,81.053429,75.138710,30.862144,43.776295
18.477468,13.444288,15.571756,68.726448,81.182930,74.877731,30.681450,44.503368
18.565222,13.390135,15.514348,68.222519,81.199280,74.869141,30.650440,44.620914
18.813507,13.186089,15.508009,66.430916,81.576050,74.633774,30.613022,44.811932
19.037096,13.093558,15.568532,66.052536,82.038170,74.405052,30.546612,44.940876
19.381376,12.975515,15.735521,66.090851,82.517372,73.899391,30.334009,45.168785
19.800623,12.839577,15.874003,65.876205,82.723923,73.497833,30.056517,45.304653
20.218864,12.622971,15.907673,65.427773,82.739952,73.235542,29.896492,45.625999
20.632582,12.402116,15.838169,65.262009,82.894127,73.130249,29.847763,45.941902
20.825642,12.283069,15.862516,64.962296,83.236176,72.812386,29.964132,46.104061
20.489361,12.199265,15.738931,64.517326,83.231941,72.490273,30.070383,46.316750
20.145660,12.197547,15.728370,64.023849,82.832634,71.891823,30.193939,46.458443
19.830990,12.252398,15.479485,63.121357,82.001488,70.955223,30.121223,46.822697
19.698875,12.321742,15.357885,62.532600,81.498169,70.518311,29.976631,46.921032
19.440592,12.512877,15.178337,61.186440,80.792358,69.643089,29.817945,47.481491
19.171963,12.644850,15.091180,59.898865,80.134727,69.090767,29.846058,47.991364
19.059021,12.676834,15.104401,59.149815,79.737068,68.858025,29.756929,48.156921
