0.080285,0.221404,0.003798,0.062382,0.072441,0.013910,0.045790,0.095859
0.080120,0.222913,0.003691,0.062635,0.070383,0.013881,0.045453,0.095673
0.079977,0.224890,0.003600,0.062849,0.068822,0.013937,0.045147,0.095390
0.080660,0.229100,0.003404,0.063835,0.064748,0.014217,0.045445,0.096736
0.081292,0.232380,0.003688,0.065877,0.061678,0.014590,0.048683,0.097989
0.081536,0.233965,0.003924,0.066659,0.056570,0.014704,0.052292,0.097162
0.081963,0.236264,0.004159,0.065038,0.055166,0.014871,0.056153,0.096694
0.082464,0.234866,0.004215,0.065137,0.055385,0.014813,0.056741,0.096566
0.082888,0.233862,0.004262,0.065221,0.056016,0.014877,0.057158,0.096414
0.084087,0.230550,0.004277,0.065636,0.056730,0.014977,0.058160,0.095186
0.086176,0.231225,0.004297,0.066509,0.060245,0.014739,0.055907,0.094048
0.086887,0.231748,0.004305,0.067659,0.061744,0.014656,0.054913,0.093442
0.087701,0.231958,0.004317,0.069270,0.064564,0.014527,0.053519,0.091890
0.089994,0.226916,0.004250,0.070195,0.066584,0.014585,0.052655,0.089514
0.089482,0.223844,0.004224,0.070438,0.067575,0.014622,0.052280,0.088390
0.088305,0.219749,0.004183,0.070188,0.068415,0.014698,0.051581,0.086596
0.088804,0.218047,0.004168,0.070195,0.068475,0.014645,0.051275,0.085669
0.089543,0.217381,0.004175,0.071096,0.068729,0.014635,0.050820,0.084178
0.090918,0.222252,0.004221,0.071936,0.069051,0.014513,0.050824,0.083278
0.097041,0.221837,0.004241,0.071077,0.069005,0.014675,0.051440,0.082583
0.099418,0.220279,0.004398,0.070440,0.068869,0.014730,0.051724,0.082358
0.101271,0.218162,0.004645,0.067650,0.068953,0.014775,0.052167,0.082119
0.101060,0.216699,0.004821,0.064379,0.068910,0.014923,0.052557,0.084118
0.101203,0.217124,0.004890,0.063084,0.069017,0.014981,0.052723,0.085911
0.100119,0.224346,0.005103,0.056815,0.075385,0.014913,0.053228,0.092067
0.099226,0.226445,0.005130,0.056133,0.076960,0.014925,0.052906,0.092615
0.099252,0.228451,0.005171,0.055874,0.079228,0.014833,0.050778,0.092665
0.100119,0.227559,0.005133,0.056810,0.080854,0.014792,0.048883,0.091439
0.100073,0.228364,0.005118,0.057173,0.081485,0.014776,0.048357,0.092517
0.100900,0.227710,0.005095,0.057281,0.083675,0.014666,0.048099,0.095534
0.101832,0.228452,0.004716,0.059113,0.087899,0.014474,0.047868,0.096930
0.102005,0.229784,0.004588,0.059961,0.091129,0.014379,0.047741,0.097491
0.101036,0.226595,0.004629,0.059736,0.101144,0.014571,0.047384,0.096584
0.099621,0.217198,0.004646,0.060119,0.112036,0.015159,0.046760,0.094264
0.098651,0.211316,0.004653,0.061145,0.116737,0.015385,0.046634,0.093799
0.097248,0.197988,0.004668,0.063879,0.126601,0.016128,0.047505,0.097042
0.095608,0.192147,0.004675,0.064552,0.130305,0.016427,0.046639,0.097481
0.095287,0.190408,0.004677,0.065102,0.132096,0.016593,0.045489,0.097315
0.094960,0.186055,0.004124,0.063086,0.137270,0.016963,0.041588,0.097033
0.094798,0.183562,0.003882,0.062489,0.138249,0.017052,0.038602,0.096407
0.095366,0.183632,0.003788,0.062464,0.138381,0.016996,0.037382,0.096187
0.100074,0.183602,0.003584,0.061792,0.143975,0.017092,0.035233,0.095740
0.104672,0.182380,0.003534,0.062299,0.148990,0.017523,0.034517,0.095914
0.107129,0.179224,0.003453,0.060735,0.149522,0.018607,0.033746,0.096199
0.107916,0.178299,0.003437,0.060109,0.150237,0.019088,0.033182,0.096757
0.107678,0.177245,0.003439,0.059506,0.151050,0.019249,0.032963,0.097166
0.106537,0.177961,0.003662,0.058782,0.152059,0.019706,0.032262,0.097444
0.106861,0.178823,0.004266,0.058171,0.153634,0.019827,0.032225,0.100126
0.109999,0.178465,0.004864,0.057616,0.156068,0.019892,0.032326,0.103881
0.118753,0.174514,0.006373,0.058075,0.164237,0.020920,0.032363,0.114112
0.118544,0.173997,0.006816,0.058558,0.167191,0.021214,0.032238,0.117263
0.120468,0.173848,0.007192,0.059012,0.169691,0.021498,0.032220,0.120331
0.126856,0.175678,0.007254,0.061215,0.177149,0.022212,0.032583,0.131557
0.131395,0.176739,0.007282,0.062929,0.179928,0.022641,0.032764,0.135435
0.134142,0.176791,0.007292,0.063594,0.180865,0.022832,0.032803,0.135722
0.144901,0.177787,0.007316,0.065024,0.178728,0.024212,0.033717,0.139383
0.148367,0.179638,0.007321,0.065363,0.176350,0.024534,0.034102,0.141257
0.151301,0.180757,0.007326,0.066355,0.174441,0.024720,0.034285,0.142791
0.155317,0.181601,0.007431,0.067015,0.170300,0.025022,0.034240,0.147086
0.158588,0.180974,0.007687,0.065973,0.168968,0.025040,0.033904,0.152341
0.160403,0.179816,0.007832,0.065630,0.168915,0.025113,0.033565,0.155252
0.166124,0.179023,0.008345,0.065176,0.169131,0.024834,0.032339,0.162970
0.181462,0.177532,0.009567,0.062136,0.168818,0.025372,0.032075,0.178426
0.188540,0.177339,0.009931,0.061181,0.169682,0.025775,0.032302,0.184942
0.194556,0.178125,0.010238,0.060373,0.169357,0.026252,0.032494,0.190458
0.211448,0.180139,0.010905,0.059011,0.159119,0.026808,0.032842,0.207520
0.226757,0.180218,0.011197,0.057435,0.150078,0.026925,0.033344,0.218868
0.239816,0.179545,0.011405,0.055645,0.144692,0.027188,0.033024,0.227523
0.245144,0.179996,0.011486,0.055043,0.143139,0.027392,0.032919,0.231396
0.259651,0.180521,0.011673,0.054100,0.141339,0.027855,0.033039,0.243303
0.276833,0.179114,0.011806,0.052432,0.138958,0.028078,0.033145,0.257220
0.284584,0.179019,0.011858,0.051896,0.138741,0.028159,0.033081,0.263923
0.308852,0.181092,0.012973,0.049321,0.145877,0.028925,0.034372,0.287809
0.312883,0.180852,0.013196,0.048727,0.145343,0.029053,0.034625,0.293647
0.317170,0.181022,0.013386,0.048183,0.144044,0.029161,0.034839,0.299027
0.325358,0.181116,0.013641,0.046358,0.141382,0.029023,0.034110,0.309799
0.332009,0.181865,0.013721,0.045461,0.139134,0.029070,0.034053,0.314656
0.346870,0.182848,0.013846,0.043949,0.135386,0.028933,0.035063,0.326285
0.365299,0.183249,0.013935,0.043017,0.132504,0.028849,0.036416,0.339340
0.408369,0.191453,0.014287,0.042328,0.127268,0.029745,0.040868,0.368081
0.430634,0.192563,0.014790,0.042068,0.125520,0.031193,0.044091,0.380126
0.440175,0.192623,0.014942,0.041840,0.124842,0.031901,0.045505,0.388575
0.463050,0.192901,0.015346,0.041293,0.123091,0.033428,0.049830,0.411926
0.479474,0.193982,0.016118,0.039528,0.122454,0.033954,0.051830,0.423472
0.485700,0.194781,0.016537,0.038939,0.122039,0.034234,0.052631,0.426385
0.491608,0.195099,0.017537,0.037831,0.122425,0.034603,0.053526,0.435478
0.495689,0.194565,0.018394,0.036739,0.121102,0.034921,0.054028,0.441750
0.500477,0.194136,0.018791,0.036077,0.120485,0.034906,0.054240,0.445125
0.514387,0.191616,0.019653,0.034642,0.119108,0.035423,0.061828,0.458978
0.526369,0.187538,0.020029,0.034015,0.118360,0.038505,0.072357,0.473272
0.533808,0.184016,0.020640,0.033771,0.118372,0.040363,0.077025,0.480950
0.558521,0.174833,0.022081,0.031005,0.118521,0.046609,0.093200,0.510548
0.577402,0.172037,0.023032,0.029796,0.119683,0.051208,0.103224,0.526703
0.586263,0.171151,0.023638,0.029193,0.119881,0.053925,0.108851,0.533656
0.605596,0.174705,0.026786,0.028868,0.120216,0.058884,0.119132,0.544739
0.620702,0.181723,0.031882,0.029568,0.118011,0.062864,0.127612,0.555145
0.626031,0.185409,0.034006,0.029925,0.116998,0.064117,0.131048,0.561660
0.640726,0.196017,0.040458,0.031228,0.112596,0.067153,0.141275,0.578084
0.651925,0.200743,0.044623,0.031730,0.110452,0.069041,0.151968,0.592720
0.658326,0.209994,0.050786,0.031162,0.108022,0.072689,0.168151,0.609851
0.663456,0.218767,0.054407,0.030272,0.106118,0.076733,0.183346,0.624968
0.671051,0.229110,0.057811,0.030213,0.105316,0.082661,0.197843,0.635495
0.673266,0.246193,0.062358,0.030667,0.104031,0.090413,0.216308,0.643725
0.677895,0.254725,0.065945,0.030841,0.100327,0.095191,0.226115,0.647776
0.681756,0.258811,0.067211,0.030958,0.097154,0.097315,0.229892,0.648786
0.683661,0.262371,0.068717,0.031058,0.093797,0.099401,0.234213,0.650220
0.687036,0.265350,0.070579,0.031142,0.090259,0.101085,0.238044,0.653760
0.694021,0.269324,0.073599,0.031453,0.084631,0.104629,0.244582,0.662811
0.699374,0.269496,0.076092,0.032039,0.080659,0.107675,0.251997,0.667762
0.696550,0.268618,0.079133,0.032342,0.077401,0.111096,0.259834,0.675796
0.690359,0.266615,0.081159,0.031937,0.076365,0.113201,0.267730,0.678591
0.682157,0.263103,0.082373,0.031926,0.075823,0.114216,0.270239,0.678938
0.678515,0.260753,0.082591,0.031949,0.077284,0.114424,0.270445,0.680995
0.662302,0.255765,0.083179,0.032428,0.085504,0.115597,0.269876,0.680026
0.652082,0.253675,0.083655,0.032637,0.088849,0.116345,0.269439,0.669078
0.646906,0.252916,0.083483,0.032592,0.088774,0.116652,0.269317,0.663679
0.633495,0.245176,0.081326,0.033292,0.084712,0.119839,0.270331,0.648273
0.632355,0.244263,0.080922,0.033647,0.086119,0.120767,0.270499,0.644395
0.620026,0.241852,0.079687,0.034871,0.089391,0.122665,0.269389,0.633172
0.614733,0.241756,0.079394,0.035920,0.090315,0.123150,0.267253,0.628054
0.608353,0.240954,0.079147,0.036807,0.092296,0.123038,0.263284,0.620735
0.584506,0.242786,0.078546,0.040563,0.099085,0.122855,0.247325,0.594183
0.568596,0.251436,0.078339,0.042260,0.103646,0.125689,0.236063,0.571745
0.559259,0.255177,0.078231,0.042555,0.104699,0.125840,0.230548,0.560257
0.539648,0.264589,0.078381,0.043016,0.106978,0.125855,0.220264,0.539887
0.529030,0.269763,0.078105,0.043195,0.107862,0.125085,0.214546,0.531031
0.507694,0.277009,0.075315,0.042857,0.108513,0.126619,0.204123,0.513103
0.495494,0.278880,0.072788,0.042443,0.110417,0.127172,0.199309,0.502985
0.484717,0.279983,0.070344,0.041529,0.112081,0.127887,0.194993,0.491764
0.464275,0.282546,0.065474,0.040414,0.114683,0.129835,0.187688,0.468415
0.443403,0.284926,0.060591,0.040213,0.115488,0.131064,0.179595,0.446140
0.424238,0.287415,0.056265,0.040817,0.117521,0.131249,0.168448,0.421632
0.416532,0.289076,0.054157,0.041099,0.118348,0.130627,0.162846,0.410621
0.408246,0.293971,0.052372,0.041338,0.119049,0.130056,0.157461,0.398424
0.395657,0.303207,0.048560,0.041804,0.120143,0.127793,0.143721,0.373075
0.387264,0.306198,0.047053,0.042028,0.120837,0.125665,0.135067,0.359363
0.354650,0.311920,0.041622,0.040490,0.119892,0.114654,0.105652,0.314261
0.347008,0.315038,0.040618,0.040049,0.119943,0.112942,0.100099,0.304955
0.329924,0.320059,0.037506,0.039249,0.122236,0.109793,0.090332,0.286923
0.313558,0.324782,0.035060,0.038584,0.123889,0.107279,0.081595,0.272456
0.306758,0.329256,0.033557,0.038325,0.124531,0.106443,0.077312,0.263578
0.295869,0.340980,0.031694,0.037987,0.125076,0.105037,0.070130,0.242841
0.282007,0.355658,0.030179,0.037381,0.125203,0.104210,0.061973,0.225618
0.276167,0.363477,0.029862,0.037145,0.125214,0.104283,0.058349,0.216556
0.265916,0.379890,0.029189,0.036778,0.127460,0.107198,0.052696,0.199916
0.251708,0.395952,0.028818,0.036906,0.132328,0.110672,0.045662,0.185382
0.229884,0.417196,0.028701,0.036425,0.137027,0.114821,0.040445,0.162796
0.217636,0.429382,0.030003,0.035388,0.137448,0.117910,0.039763,0.149717
0.214062,0.436163,0.031896,0.034890,0.136806,0.120443,0.039917,0.144800
0.206091,0.445358,0.033985,0.034111,0.136313,0.125655,0.039761,0.136089
0.196714,0.453737,0.036518,0.033554,0.135731,0.130352,0.042035,0.128833
0.185793,0.468855,0.038850,0.032878,0.134527,0.134104,0.045603,0.122717
0.172714,0.499472,0.041684,0.030567,0.136059,0.138723,0.052883,0.116622
0.170356,0.520361,0.044481,0.028209,0.134425,0.147452,0.057784,0.115695
0.171422,0.538250,0.046979,0.026584,0.136606,0.155891,0.065396,0.118632
0.172166,0.547821,0.048982,0.025263,0.137473,0.159811,0.070808,0.120979
0.179973,0.569143,0.053636,0.022642,0.138320,0.166684,0.080526,0.124079
0.185612,0.586763,0.058665,0.020570,0.144421,0.174663,0.088991,0.127650
0.187897,0.593235,0.061213,0.019795,0.145791,0.179209,0.092850,0.129805
0.195503,0.605503,0.066312,0.018021,0.148578,0.190669,0.101895,0.135322
0.199226,0.609245,0.068554,0.017305,0.152349,0.196620,0.106331,0.136414
0.201747,0.613805,0.070129,0.017027,0.154395,0.198313,0.108555,0.136914
0.212494,0.619519,0.073974,0.016707,0.158785,0.200647,0.113754,0.136472
0.218657,0.622470,0.075738,0.016303,0.159628,0.200769,0.116084,0.137284
0.225016,0.634739,0.079242,0.013402,0.159564,0.200335,0.119630,0.139899
0.224250,0.629235,0.079718,0.012483,0.160306,0.201593,0.120477,0.140561
0.223482,0.625847,0.079843,0.012033,0.161044,0.203491,0.120899,0.140759
0.223359,0.618961,0.079980,0.011403,0.163099,0.206605,0.121559,0.142547
0.222888,0.609596,0.079466,0.012006,0.165006,0.209009,0.122330,0.147553
0.222642,0.604939,0.079219,0.012489,0.165290,0.209938,0.122806,0.150010
0.220496,0.591294,0.078706,0.013537,0.166107,0.210851,0.122406,0.156243
0.217539,0.580054,0.077746,0.014184,0.169763,0.211470,0.122063,0.161813
0.209073,0.565095,0.076251,0.014838,0.172012,0.212676,0.121868,0.165655
0.206061,0.552395,0.075245,0.015284,0.172916,0.212908,0.122050,0.168817
0.205252,0.543638,0.074732,0.015693,0.172631,0.212634,0.121318,0.170883
0.204362,0.529056,0.073930,0.016058,0.169159,0.209491,0.120024,0.174778
0.206146,0.520529,0.073426,0.016088,0.167082,0.207864,0.119429,0.176957
0.213971,0.500970,0.071952,0.016155,0.163770,0.205724,0.115990,0.184168
0.216436,0.489266,0.070021,0.016184,0.160386,0.202728,0.113259,0.186789
0.216921,0.483374,0.068122,0.016195,0.158631,0.200097,0.111801,0.188524
0.221151,0.472308,0.064791,0.016617,0.151014,0.192242,0.107602,0.197747
0.224148,0.464594,0.064525,0.016944,0.147273,0.186973,0.101402,0.201454
0.225052,0.457407,0.064017,0.017219,0.145891,0.185259,0.098327,0.203894
0.225423,0.431595,0.062916,0.017815,0.139882,0.179574,0.089860,0.218970
0.225962,0.417647,0.061678,0.018297,0.134920,0.170276,0.084913,0.235098
0.227081,0.412010,0.061309,0.018305,0.131672,0.166204,0.081816,0.242326
0.226518,0.390014,0.056978,0.018322,0.124531,0.158114,0.070659,0.257767
0.225494,0.382604,0.055161,0.018468,0.120467,0.156241,0.069168,0.264886
0.225175,0.348546,0.045624,0.019341,0.101568,0.139639,0.072737,0.283899
0.224894,0.334433,0.042150,0.020021,0.096997,0.132111,0.075893,0.289644
0.225213,0.329037,0.040802,0.020261,0.094330,0.129490,0.077681,0.293454
0.222643,0.304377,0.035724,0.020807,0.086385,0.122308,0.082322,0.307057
0.219901,0.296675,0.034158,0.020799,0.083682,0.120744,0.085198,0.314535
0.217821,0.289625,0.033168,0.021024,0.081358,0.120526,0.091450,0.320711
0.218347,0.268216,0.030723,0.021112,0.078435,0.122920,0.109730,0.338253
0.221452,0.251673,0.029313,0.021039,0.076811,0.125896,0.123644,0.353945
0.224333,0.245103,0.028706,0.021006,0.076765,0.130158,0.132182,0.361502
0.232514,0.234597,0.028044,0.020954,0.077641,0.138240,0.147173,0.381245
0.240051,0.223819,0.029716,0.022216,0.079743,0.154976,0.170581,0.406152
0.245182,0.230036,0.035930,0.023180,0.080427,0.173288,0.196343,0.423377
0.247189,0.233463,0.039573,0.023202,0.079711,0.187263,0.212195,0.434670
0.248768,0.235134,0.041428,0.023449,0.081500,0.195039,0.218494,0.439555
0.255237,0.239189,0.045086,0.023944,0.083148,0.209854,0.236031,0.446749
0.263472,0.236625,0.047539,0.024401,0.085438,0.223474,0.251050,0.452471
0.268002,0.233808,0.048504,0.024399,0.087011,0.230088,0.258955,0.458321
0.275581,0.229026,0.050207,0.024735,0.091451,0.244629,0.277985,0.469570
0.281616,0.225416,0.051364,0.025556,0.098133,0.266053,0.300127,0.482589
0.284981,0.225281,0.052073,0.025874,0.102327,0.275932,0.310751,0.490951
0.290683,0.224507,0.053481,0.026370,0.108883,0.295491,0.332077,0.505585
0.289388,0.225561,0.055694,0.026698,0.113316,0.312840,0.349623,0.515199
0.288094,0.227965,0.058921,0.026825,0.115016,0.319735,0.358108,0.521573
0.289515,0.244246,0.070144,0.027101,0.126789,0.346891,0.386682,0.546528
0.292051,0.252385,0.075945,0.027222,0.136021,0.367964,0.408905,0.564811
0.294892,0.255488,0.077715,0.027073,0.140282,0.377366,0.418215,0.570306
0.317042,0.269772,0.085151,0.028285,0.159242,0.420131,0.452954,0.585770
0.321535,0.272054,0.086766,0.028382,0.162477,0.428030,0.460730,0.587227
0.329770,0.278239,0.092950,0.028534,0.167533,0.442242,0.473007,0.580411
0.331760,0.281060,0.098738,0.028675,0.171287,0.455011,0.482612,0.566797
0.331111,0.283288,0.101919,0.028743,0.172172,0.460891,0.488086,0.563149
0.329665,0.287830,0.107850,0.029403,0.175012,0.472038,0.496435,0.561096
0.331392,0.292554,0.112429,0.029853,0.179861,0.481698,0.500642,0.555062
0.331175,0.295106,0.114305,0.029886,0.181743,0.484737,0.499338,0.554966
0.328065,0.299311,0.117944,0.029582,0.187888,0.490701,0.496374,0.554140
0.325587,0.300584,0.119535,0.029363,0.193471,0.495022,0.494014,0.554528
0.325464,0.300991,0.120449,0.029278,0.195104,0.497247,0.492682,0.553542
0.326425,0.303427,0.123778,0.028729,0.207812,0.504155,0.478824,0.536403
0.326155,0.303548,0.124333,0.028489,0.210161,0.504034,0.472376,0.532200
0.322223,0.304261,0.125438,0.027967,0.215819,0.500691,0.452556,0.515082
0.316142,0.304385,0.125839,0.027940,0.223528,0.494835,0.436712,0.499399
0.311934,0.304797,0.125940,0.028300,0.225887,0.490749,0.428321,0.490358
0.302839,0.308526,0.125124,0.028658,0.232748,0.477863,0.406221,0.463976
0.301122,0.309451,0.123926,0.027371,0.234950,0.464579,0.389225,0.449968
0.299434,0.306833,0.121535,0.026867,0.236399,0.458832,0.381212,0.444098
0.299462,0.312131,0.117166,0.025826,0.247284,0.437454,0.354829,0.424617
0.298872,0.312454,0.117056,0.025537,0.248082,0.429258,0.348268,0.418455
0.288034,0.312780,0.117217,0.025340,0.252610,0.399505,0.314702,0.397220
0.280813,0.319932,0.118100,0.025311,0.253717,0.385309,0.297584,0.381902
0.277792,0.322744,0.118206,0.025176,0.252321,0.376051,0.287270,0.375173
0.272243,0.328109,0.118485,0.025651,0.248315,0.353199,0.264905,0.358742
0.265917,0.333606,0.118493,0.025716,0.243713,0.332419,0.243336,0.337827
0.263490,0.337103,0.118198,0.025816,0.243781,0.323578,0.232929,0.328886
0.258694,0.349183,0.116699,0.026869,0.244095,0.301795,0.207518,0.303648
0.257818,0.352275,0.110518,0.027811,0.235669,0.277130,0.179241,0.272183
0.255653,0.367839,0.106024,0.028856,0.234167,0.251496,0.149220,0.239825
0.247898,0.378828,0.101823,0.028244,0.232714,0.231871,0.131759,0.228000
0.243218,0.386177,0.100966,0.027976,0.231789,0.222739,0.124549,0.221086
0.230997,0.409077,0.099223,0.027462,0.230412,0.204648,0.105718,0.203653
0.225058,0.415906,0.095465,0.027245,0.231803,0.198032,0.099111,0.199114
0.223042,0.421699,0.094505,0.026908,0.232521,0.195030,0.095971,0.197300
0.217368,0.429838,0.090016,0.025626,0.237913,0.186475,0.085974,0.179481
0.209190,0.436030,0.089254,0.024632,0.242962,0.180500,0.082389,0.170658
0.205761,0.441187,0.089893,0.024246,0.245005,0.179059,0.080791,0.163736
0.203710,0.466901,0.094070,0.022860,0.247817,0.177724,0.080828,0.154971
0.208525,0.484135,0.097704,0.022414,0.245833,0.179237,0.082507,0.155112
0.213411,0.516646,0.103782,0.022488,0.241691,0.177119,0.084502,0.155880
0.216007,0.526610,0.105775,0.022767,0.240279,0.177079,0.085511,0.155452
0.217374,0.537095,0.107909,0.023003,0.238861,0.177446,0.086642,0.154937
0.218609,0.547241,0.109529,0.023203,0.236934,0.177858,0.087649,0.154501
0.220266,0.566681,0.113040,0.023865,0.234013,0.179401,0.089411,0.153654
0.222423,0.574582,0.114672,0.024330,0.232406,0.180103,0.090482,0.153405
0.226636,0.592459,0.118060,0.024856,0.224532,0.181431,0.092663,0.153432
0.231723,0.611592,0.122024,0.024550,0.216825,0.183084,0.095114,0.152762
0.232778,0.615028,0.122970,0.024494,0.214331,0.183045,0.095637,0.152489
0.234648,0.618834,0.123925,0.024311,0.209145,0.183875,0.096315,0.150422
0.235359,0.619238,0.124132,0.024197,0.206826,0.184519,0.096451,0.148487
0.234525,0.612471,0.124916,0.024118,0.198801,0.185038,0.096664,0.145291
0.233915,0.607791,0.123445,0.023560,0.191348,0.185893,0.096855,0.143087
0.236365,0.606745,0.122126,0.023128,0.189641,0.186202,0.096946,0.142307
0.241440,0.606019,0.120801,0.022451,0.187732,0.188398,0.097088,0.143676
0.246671,0.603595,0.118733,0.022324,0.185490,0.190387,0.097351,0.145931
0.248768,0.601412,0.118282,0.022281,0.184414,0.191089,0.097559,0.146765
0.252261,0.595203,0.116719,0.019923,0.183170,0.194468,0.098007,0.148342
0.252368,0.592064,0.116320,0.019261,0.181128,0.194230,0.098133,0.149204
0.253228,0.594067,0.114885,0.018092,0.178369,0.191998,0.097933,0.150001
0.250907,0.583299,0.110859,0.017006,0.176559,0.188954,0.097501,0.150352
0.248097,0.581390,0.109539,0.017310,0.176141,0.188236,0.097409,0.149008
0.242244,0.575554,0.106444,0.018451,0.172711,0.184571,0.096630,0.146802
0.235186,0.566462,0.105344,0.019412,0.163872,0.181865,0.095801,0.144178
0.231715,0.562668,0.104622,0.019785,0.159382,0.180783,0.095100,0.141682
0.224484,0.550424,0.104053,0.020453,0.152018,0.177693,0.093654,0.135649
0.219276,0.535360,0.103071,0.020951,0.146972,0.173168,0.091237,0.130776
0.216593,0.517172,0.098568,0.021923,0.146907,0.162543,0.083981,0.124892
0.213953,0.502647,0.095205,0.023038,0.149807,0.155420,0.080261,0.123924
0.212389,0.494797,0.092601,0.024207,0.148591,0.149427,0.076102,0.125329
0.213194,0.492862,0.091214,0.024830,0.146485,0.147316,0.073636,0.125551
0.214768,0.480736,0.084774,0.026182,0.141855,0.137399,0.066976,0.124272
0.211827,0.467833,0.079211,0.026811,0.139387,0.130394,0.059200,0.117623
0.207588,0.465667,0.076832,0.026990,0.138164,0.125093,0.055543,0.113495
0.205457,0.462501,0.071592,0.027328,0.136040,0.118463,0.049397,0.105311
0.203841,0.454555,0.067153,0.028742,0.133026,0.116305,0.045352,0.101714
0.202564,0.449432,0.065087,0.029316,0.131219,0.115399,0.043794,0.100921
0.194183,0.430248,0.054672,0.030452,0.126084,0.109748,0.038676,0.104761
0.191760,0.425474,0.052232,0.030291,0.124719,0.108268,0.037852,0.107603
0.185334,0.411149,0.046077,0.029819,0.124418,0.105376,0.035575,0.112653
0.182612,0.402935,0.042333,0.029547,0.125352,0.104490,0.034681,0.115771
0.180351,0.397673,0.039451,0.029299,0.126327,0.102557,0.034145,0.119478
0.177461,0.394269,0.037032,0.029146,0.128555,0.098888,0.033793,0.123647
0.176287,0.392617,0.035496,0.029011,0.129919,0.096997,0.034488,0.129422
0.176605,0.391247,0.034680,0.028913,0.130309,0.095898,0.035443,0.133325
0.172560,0.390820,0.032654,0.028336,0.127568,0.094807,0.038102,0.140217
0.165759,0.387716,0.030807,0.027899,0.123016,0.096657,0.040875,0.142385
0.162556,0.387495,0.029113,0.027688,0.122660,0.100436,0.044153,0.146659
0.163068,0.389851,0.029063,0.027835,0.121955,0.102004,0.045694,0.150692
0.162976,0.391711,0.029044,0.027892,0.122672,0.102558,0.046740,0.154822
0.164668,0.396044,0.029651,0.027934,0.123603,0.105225,0.048805,0.163701
0.166728,0.401814,0.030938,0.028399,0.124022,0.108391,0.054215,0.173261
0.168845,0.405474,0.031765,0.029196,0.124967,0.110811,0.057312,0.176991
0.180422,0.413213,0.033218,0.029317,0.127030,0.116550,0.068536,0.189138
0.191480,0.414554,0.032926,0.027661,0.130503,0.121320,0.078760,0.198950
0.198843,0.416457,0.031152,0.026939,0.140646,0.132135,0.092244,0.216427
0.200352,0.418751,0.030555,0.027177,0.144139,0.135071,0.096069,0.219775
0.200517,0.419442,0.030049,0.027379,0.146993,0.138733,0.099307,0.223136
0.204338,0.433271,0.029882,0.027672,0.151335,0.151403,0.107208,0.229198
0.210106,0.448931,0.030568,0.028054,0.155611,0.162637,0.111154,0.229954
0.212078,0.455369,0.030835,0.027832,0.157886,0.167056,0.112603,0.230082
0.211958,0.459425,0.030896,0.028299,0.160869,0.177145,0.116138,0.229270
0.211660,0.460457,0.031002,0.029538,0.166394,0.187163,0.119278,0.229607
0.211003,0.459985,0.031353,0.030137,0.169951,0.191786,0.120557,0.231278
0.213460,0.454832,0.033735,0.031162,0.177167,0.202778,0.123940,0.238027
0.210855,0.451608,0.037447,0.030960,0.182478,0.206851,0.125620,0.241919
0.209529,0.451269,0.039931,0.030217,0.185063,0.207905,0.126211,0.241567
0.206954,0.448577,0.046683,0.029099,0.193900,0.211093,0.125673,0.237331
0.206219,0.441492,0.050136,0.028748,0.199134,0.214144,0.125128,0.231997
0.205635,0.439195,0.051435,0.028612,0.201548,0.216326,0.124853,0.228421
0.203376,0.435578,0.053556,0.028395,0.205744,0.219471,0.123975,0.223694
0.203484,0.432666,0.055075,0.028235,0.208855,0.223242,0.123149,0.220501
0.203340,0.433240,0.055664,0.028173,0.211419,0.224735,0.122788,0.218564
0.201170,0.437216,0.057094,0.028194,0.219604,0.230327,0.121773,0.213376
0.201197,0.447057,0.060934,0.028975,0.225342,0.236988,0.121139,0.211171
0.207915,0.462313,0.065265,0.029490,0.227277,0.240232,0.120161,0.205660
0.217829,0.475847,0.071685,0.030003,0.228664,0.241823,0.119016,0.199488
0.220244,0.479055,0.073316,0.030124,0.229061,0.241257,0.118318,0.197680
0.224574,0.499122,0.078066,0.029891,0.231195,0.240414,0.116500,0.196160
0.224698,0.510925,0.083309,0.029461,0.231947,0.240145,0.116048,0.195356
0.225926,0.520718,0.089720,0.029273,0.230869,0.239379,0.117647,0.192847
0.224148,0.524040,0.095840,0.030081,0.233551,0.240813,0.120167,0.187063
0.222449,0.526953,0.101290,0.030605,0.237520,0.241091,0.121006,0.182075
0.222143,0.525595,0.103077,0.030206,0.240658,0.239761,0.120592,0.180151
0.220859,0.525022,0.111074,0.029150,0.258036,0.236554,0.115471,0.181362
0.220862,0.526663,0.112405,0.028989,0.261855,0.235502,0.113871,0.181959
0.220031,0.525423,0.115847,0.028681,0.266803,0.234706,0.117621,0.183222
0.219851,0.521742,0.117478,0.028082,0.268919,0.232674,0.119539,0.181375
0.219626,0.519875,0.118775,0.027850,0.269614,0.231599,0.119012,0.181591
0.218930,0.520786,0.121603,0.026762,0.275970,0.233217,0.120238,0.183804
0.216576,0.524532,0.123169,0.025575,0.281256,0.232268,0.121789,0.188014
0.208894,0.522460,0.123109,0.023525,0.280369,0.223100,0.125724,0.190482
0.204508,0.523891,0.125403,0.023255,0.277373,0.215289,0.130057,0.192664
0.202769,0.525755,0.127205,0.022675,0.276051,0.210265,0.130891,0.193906
0.200731,0.537387,0.134589,0.022589,0.269043,0.199518,0.132552,0.195642
0.197886,0.544259,0.140665,0.022807,0.266311,0.198934,0.133414,0.193790
0.195346,0.545392,0.142249,0.022844,0.266831,0.198561,0.133605,0.193010
0.191829,0.547282,0.143690,0.022883,0.266094,0.196331,0.133784,0.197205
0.188949,0.548777,0.143397,0.023096,0.263640,0.196213,0.134312,0.202220
0.188646,0.549295,0.143582,0.022911,0.261834,0.195869,0.134505,0.204048
0.186027,0.559097,0.147989,0.022510,0.259080,0.193783,0.134673,0.208667
0.189419,0.571055,0.155984,0.023371,0.262265,0.192014,0.134918,0.210704
0.192000,0.575599,0.159320,0.023705,0.262336,0.190919,0.135016,0.211397
0.193328,0.584281,0.165701,0.024227,0.262339,0.186873,0.134900,0.211976
0.194728,0.586970,0.170415,0.025211,0.260117,0.183694,0.135052,0.212825
0.195786,0.588943,0.172133,0.025592,0.258339,0.182195,0.135278,0.213085
0.198336,0.596167,0.174191,0.025886,0.253955,0.179350,0.135869,0.213662
0.197588,0.595615,0.173624,0.025455,0.252136,0.177059,0.137041,0.212872
0.194290,0.591253,0.172764,0.025287,0.252486,0.176784,0.137553,0.213424
0.174405,0.571899,0.166559,0.024766,0.254647,0.175865,0.137217,0.215665
0.168861,0.566240,0.165355,0.024774,0.253168,0.172116,0.136597,0.213288
0.161936,0.550714,0.159383,0.024925,0.254378,0.166839,0.135107,0.206884
0.160090,0.540429,0.152915,0.024844,0.257382,0.163861,0.131633,0.201890
0.159328,0.533441,0.149416,0.024482,0.257868,0.161245,0.129470,0.199951
0.158325,0.521353,0.142558,0.023599,0.255852,0.154966,0.123874,0.193447
0.157204,0.511078,0.137641,0.022426,0.249043,0.150716,0.118812,0.188314
0.156671,0.507969,0.135898,0.021983,0.244229,0.149119,0.116353,0.184735
0.154682,0.500484,0.132198,0.021353,0.235015,0.146406,0.112108,0.175808
0.153301,0.491665,0.129794,0.020927,0.226314,0.143375,0.107891,0.168452
0.153522,0.488345,0.128589,0.020995,0.222391,0.141550,0.102991,0.165616
0.153387,0.484224,0.125277,0.021100,0.219392,0.137169,0.093328,0.158701
0.154334,0.479978,0.121826,0.022249,0.217095,0.132975,0.085566,0.150311
0.154663,0.476259,0.119564,0.023316,0.215475,0.130354,0.081498,0.145295
0.156117,0.473928,0.115791,0.024983,0.207506,0.124798,0.073717,0.135060
0.159458,0.470836,0.113358,0.027062,0.200976,0.120092,0.067355,0.124956
0.161484,0.467795,0.112537,0.028095,0.199549,0.118420,0.063621,0.122071
0.165342,0.453049,0.109491,0.029708,0.197637,0.114677,0.051019,0.113243
0.167801,0.445807,0.106115,0.029389,0.198983,0.111797,0.045143,0.107319
0.171158,0.440037,0.103734,0.028666,0.200466,0.110789,0.042633,0.104358
0.186828,0.407467,0.088477,0.028363,0.200586,0.093717,0.032759,0.089677
0.190013,0.402275,0.086151,0.028847,0.199815,0.091288,0.031357,0.084613
0.200566,0.389685,0.079672,0.029616,0.198217,0.081511,0.028393,0.073142
0.209915,0.378293,0.073933,0.029952,0.197308,0.077559,0.031707,0.071105
0.214899,0.369975,0.069855,0.030082,0.196658,0.075612,0.033847,0.070984
0.221451,0.353351,0.055557,0.029087,0.194632,0.071187,0.040626,0.071308
0.226025,0.345644,0.047973,0.028674,0.192157,0.069419,0.044758,0.073667
0.229893,0.341595,0.045029,0.028361,0.190278,0.068726,0.046342,0.074907
0.238513,0.332957,0.040167,0.028652,0.186743,0.065593,0.048603,0.077461
0.246044,0.320081,0.038354,0.029739,0.184213,0.062385,0.050197,0.080897
0.250038,0.316401,0.037803,0.030185,0.183432,0.060842,0.050748,0.082753
0.260432,0.308593,0.036929,0.031650,0.178073,0.056485,0.054142,0.084456
0.263105,0.306929,0.036771,0.032073,0.176487,0.055261,0.055659,0.084623
0.266035,0.305826,0.036673,0.032431,0.175144,0.054226,0.057277,0.084991
0.273805,0.303409,0.036495,0.033862,0.178180,0.052483,0.061859,0.092973
0.277495,0.303917,0.037145,0.034888,0.180437,0.051861,0.065116,0.099684
0.286474,0.303473,0.038290,0.036628,0.181677,0.051563,0.070459,0.111562
0.306464,0.310440,0.043051,0.040569,0.182866,0.053884,0.079529,0.129349
0.318106,0.315145,0.045898,0.042222,0.180738,0.055310,0.087311,0.140649
0.332322,0.316546,0.047842,0.043437,0.177967,0.057202,0.096363,0.154689
0.338118,0.317976,0.048527,0.043909,0.176892,0.058179,0.100857,0.160924
0.342881,0.321720,0.049075,0.044282,0.175982,0.058880,0.104820,0.166027
0.354161,0.329079,0.049719,0.045251,0.173780,0.059770,0.110808,0.173589
0.360761,0.332534,0.049919,0.045726,0.172668,0.060021,0.113366,0.176019
0.369535,0.342455,0.050652,0.046467,0.172292,0.060164,0.118275,0.180263
0.382599,0.356459,0.052637,0.046769,0.174294,0.061592,0.122163,0.183830
0.387286,0.362847,0.054470,0.046977,0.173604,0.062665,0.124125,0.186426
0.399554,0.375884,0.060788,0.045317,0.168032,0.063323,0.130452,0.194069
0.403586,0.376089,0.062611,0.044625,0.165249,0.062478,0.132079,0.196325
0.407585,0.372684,0.064709,0.044396,0.162487,0.061784,0.133375,0.198424
0.412356,0.364638,0.067908,0.044633,0.157760,0.060869,0.135953,0.201892
0.417361,0.360268,0.070041,0.044950,0.156094,0.060131,0.137699,0.202383
0.421967,0.359708,0.071049,0.045103,0.155353,0.060034,0.138370,0.202338
0.429195,0.357732,0.072479,0.045142,0.152901,0.059882,0.139843,0.202078
0.430465,0.355686,0.073173,0.045237,0.147818,0.059472,0.141321,0.201755
0.429980,0.355235,0.073513,0.046730,0.145849,0.059353,0.141933,0.201775
0.426241,0.358917,0.073864,0.049818,0.143401,0.059405,0.142964,0.203016
0.421057,0.365005,0.074084,0.051499,0.142587,0.061031,0.144590,0.208694
0.417851,0.369454,0.074540,0.052288,0.143499,0.062527,0.145229,0.210407
0.409696,0.371506,0.075216,0.054627,0.146917,0.063378,0.144412,0.210118
0.405318,0.372726,0.075445,0.055679,0.148258,0.063417,0.142778,0.209598
0.396522,0.374704,0.076007,0.057286,0.146655,0.066030,0.141796,0.210830
0.389091,0.372474,0.076163,0.058990,0.151471,0.074769,0.144510,0.213152
0.381610,0.371006,0.077764,0.060826,0.158928,0.085652,0.150397,0.216754
0.371002,0.374142,0.080672,0.061668,0.166882,0.096012,0.160450,0.219434
0.361167,0.378221,0.082107,0.061691,0.173031,0.106780,0.175048,0.224632
0.349937,0.380472,0.082808,0.061690,0.182626,0.114948,0.188186,0.227451
0.336943,0.386180,0.083987,0.061409,0.210213,0.130360,0.200887,0.231586
0.329972,0.394692,0.084450,0.061146,0.226821,0.139372,0.205470,0.235079
0.321262,0.410293,0.085134,0.061042,0.236779,0.148788,0.206107,0.227395
0.315219,0.422712,0.085860,0.061015,0.242845,0.155579,0.206109,0.221181
0.309843,0.426674,0.086833,0.060224,0.244472,0.158343,0.207990,0.218841
0.301089,0.429296,0.086356,0.059076,0.249535,0.165107,0.215476,0.213955
0.292472,0.437011,0.086539,0.058137,0.257837,0.172082,0.219870,0.213578
0.268682,0.448795,0.086230,0.059959,0.271471,0.179591,0.225085,0.205217
0.254291,0.444406,0.085045,0.060884,0.278644,0.181906,0.228818,0.207224
0.246077,0.443705,0.084422,0.061081,0.281584,0.182734,0.231695,0.210572
0.231571,0.439148,0.084092,0.061963,0.284162,0.185176,0.235729,0.215608
0.213188,0.434650,0.084761,0.068534,0.284917,0.186109,0.238850,0.219320
0.205717,0.435933,0.085013,0.071641,0.285531,0.187012,0.240234,0.220498
0.193066,0.437997,0.084420,0.076803,0.288591,0.189715,0.243599,0.222093
0.181957,0.438239,0.083830,0.082667,0.294055,0.193456,0.250164,0.225091
0.177508,0.439003,0.083027,0.085000,0.298806,0.195620,0.253608,0.227830
0.173043,0.444039,0.082131,0.090808,0.308787,0.200674,0.263890,0.234483
0.167663,0.444773,0.081129,0.094930,0.310199,0.203129,0.272755,0.240054
0.165434,0.444723,0.080441,0.096675,0.311634,0.203925,0.276833,0.242522
0.161172,0.443518,0.078949,0.102525,0.314765,0.206946,0.286834,0.252935
0.160758,0.444144,0.078525,0.103032,0.318793,0.208237,0.292294,0.255954
0.160898,0.444195,0.078163,0.104645,0.322203,0.209817,0.297218,0.259351
0.159489,0.451445,0.077474,0.107851,0.326804,0.212551,0.309055,0.264005
0.157038,0.459806,0.077841,0.110617,0.330567,0.213446,0.319192,0.268186
0.158101,0.465609,0.078056,0.112780,0.333381,0.214374,0.323963,0.270043
0.159544,0.474114,0.078820,0.114630,0.336295,0.217523,0.332206,0.272897
0.161292,0.480326,0.079808,0.115765,0.339386,0.221149,0.336564,0.273193
0.163661,0.479412,0.080577,0.120079,0.335575,0.213840,0.334642,0.268283
0.164463,0.477150,0.079510,0.123592,0.335317,0.205393,0.328296,0.262083
0.164850,0.474522,0.078246,0.125509,0.336339,0.201204,0.324546,0.259169
0.164885,0.471303,0.076986,0.126997,0.337205,0.197925,0.320739,0.256183
0.165038,0.465293,0.075017,0.130120,0.340249,0.190253,0.311853,0.249389
0.165429,0.462676,0.074254,0.131571,0.341249,0.187113,0.306833,0.248582
0.166513,0.456277,0.071665,0.133997,0.333653,0.180304,0.299681,0.247972
0.168534,0.457645,0.070071,0.137979,0.320786,0.170424,0.293154,0.245633
0.169495,0.456345,0.069532,0.140639,0.315135,0.165598,0.290270,0.244048
0.169575,0.439748,0.066994,0.150509,0.305071,0.156964,0.284066,0.240143
0.165829,0.408604,0.063044,0.157654,0.313078,0.151369,0.277285,0.232604
0.160614,0.391815,0.059184,0.163491,0.323587,0.145580,0.266622,0.227898
0.155144,0.374741,0.056889,0.174081,0.325358,0.140425,0.254444,0.219906
0.152768,0.367024,0.056004,0.179131,0.325506,0.137567,0.249321,0.214927
0.148277,0.348244,0.054038,0.188972,0.328152,0.131694,0.232901,0.203969
0.146361,0.343816,0.053020,0.192833,0.328791,0.128912,0.224177,0.196680
0.145232,0.341443,0.052577,0.194481,0.332171,0.128005,0.219375,0.191473
0.142507,0.327403,0.050395,0.204626,0.359560,0.128494,0.203861,0.174240
0.141934,0.321370,0.049169,0.206546,0.366780,0.129444,0.202476,0.172015
0.139492,0.302680,0.046991,0.213763,0.381090,0.128824,0.196907,0.166133
0.137448,0.297711,0.045536,0.217011,0.384755,0.126085,0.189589,0.160787
0.134894,0.295687,0.044971,0.218516,0.383946,0.124390,0.185821,0.156946
0.127820,0.291975,0.043353,0.220505,0.383391,0.121128,0.178307,0.150748
0.123400,0.290980,0.042550,0.220966,0.385208,0.119317,0.174085,0.147676
0.119659,0.290813,0.041871,0.221080,0.386106,0.117859,0.169995,0.144630
0.111785,0.292093,0.040649,0.220911,0.386284,0.115940,0.159941,0.139631
0.101636,0.298881,0.039796,0.220233,0.386084,0.112868,0.148298,0.130198
0.098213,0.301322,0.039594,0.221800,0.385782,0.111609,0.142318,0.127158
0.093186,0.298842,0.039228,0.221877,0.387215,0.109215,0.132622,0.121268
0.092862,0.290245,0.039907,0.231856,0.399232,0.106238,0.119107,0.111589
0.091046,0.275910,0.038128,0.238454,0.409116,0.102216,0.103271,0.103544
0.088921,0.271095,0.036708,0.241967,0.414279,0.097277,0.094177,0.099706
0.086403,0.270393,0.036047,0.244376,0.416638,0.094909,0.090417,0.097646
0.085141,0.269321,0.036888,0.249276,0.423523,0.092427,0.084420,0.094158
0.088874,0.271917,0.037719,0.250733,0.426826,0.090410,0.081498,0.092558
0.090828,0.273489,0.038148,0.251314,0.426811,0.089304,0.080220,0.092035
0.100287,0.281009,0.041010,0.255939,0.416275,0.084866,0.066945,0.090162
0.103783,0.285049,0.045760,0.267667,0.414498,0.083447,0.061309,0.085437
0.107853,0.286868,0.050140,0.284936,0.418342,0.082312,0.057157,0.081794
0.113018,0.288079,0.053106,0.299748,0.430604,0.080932,0.054120,0.079494
0.118501,0.290075,0.055011,0.310633,0.440183,0.079215,0.051957,0.078316
0.123525,0.291459,0.056128,0.317112,0.445287,0.076270,0.050434,0.077592
0.127482,0.292632,0.056818,0.323499,0.445022,0.073950,0.049209,0.076300
0.129794,0.294543,0.057011,0.326858,0.445092,0.072455,0.048654,0.075572
0.134484,0.297829,0.056574,0.331720,0.449104,0.069997,0.048143,0.075623
0.144573,0.305303,0.056983,0.335845,0.457360,0.069098,0.047908,0.078975
0.162011,0.308796,0.058658,0.346208,0.469726,0.068393,0.047066,0.081765
0.177776,0.310638,0.059656,0.356207,0.477073,0.068765,0.046254,0.082951
0.185691,0.310630,0.060120,0.360668,0.475363,0.069051,0.046071,0.083395
0.202700,0.316043,0.061528,0.366219,0.473248,0.068716,0.045324,0.082306
0.221219,0.322256,0.060560,0.363792,0.465248,0.064103,0.043318,0.081256
0.229124,0.325805,0.059735,0.362057,0.460988,0.062328,0.041465,0.080906
0.236306,0.329151,0.058379,0.360877,0.458283,0.060669,0.039899,0.080006
0.253239,0.333582,0.056261,0.358915,0.453684,0.058423,0.037028,0.078568
0.287710,0.345065,0.054153,0.360914,0.459572,0.056527,0.034327,0.077470
0.313078,0.355730,0.053487,0.362922,0.464827,0.056561,0.033562,0.077184
0.326875,0.358051,0.053228,0.364414,0.467110,0.056839,0.033386,0.076929
0.370338,0.359854,0.054874,0.368310,0.473569,0.057973,0.034361,0.076483
0.398668,0.357507,0.055644,0.374307,0.476073,0.058755,0.035016,0.077016
0.413273,0.355370,0.056078,0.376309,0.477671,0.059257,0.035298,0.077315
0.439846,0.356731,0.058664,0.382724,0.479400,0.060537,0.036123,0.078195
0.459483,0.357387,0.059894,0.381839,0.476172,0.061748,0.037111,0.078397
0.466425,0.357334,0.060422,0.381430,0.474074,0.062297,0.037550,0.078539
0.489362,0.363318,0.061731,0.380720,0.465081,0.064170,0.039141,0.081456
0.508953,0.366275,0.062661,0.381848,0.460314,0.065984,0.040503,0.088337
0.537854,0.364659,0.062006,0.378247,0.451074,0.067482,0.042047,0.096232
0.544850,0.363793,0.061469,0.376922,0.448163,0.067533,0.041494,0.097524
0.550345,0.361537,0.060782,0.375801,0.445656,0.067577,0.040956,0.098642
0.555965,0.360635,0.060199,0.373806,0.442062,0.067613,0.040301,0.099434
0.569618,0.357636,0.058236,0.370202,0.442451,0.066664,0.038164,0.098527
0.572197,0.357389,0.057678,0.369583,0.444748,0.066671,0.037649,0.097838
0.574504,0.356237,0.056928,0.369058,0.446692,0.067025,0.037491,0.097255
0.576410,0.349924,0.052104,0.357690,0.446686,0.068534,0.037418,0.096826
0.577015,0.345976,0.049561,0.348621,0.444119,0.069632,0.037427,0.097410
0.575172,0.343223,0.047409,0.338849,0.442107,0.071177,0.037469,0.097904
0.572479,0.342490,0.043736,0.320658,0.430469,0.073804,0.038137,0.098262
0.572885,0.342945,0.042311,0.311836,0.425956,0.075020,0.039780,0.098797
0.583331,0.348320,0.039676,0.294593,0.409752,0.078068,0.051883,0.109693
0.589601,0.359142,0.038464,0.284248,0.396882,0.079351,0.060253,0.116870
0.599200,0.369110,0.036761,0.265840,0.395567,0.080406,0.069630,0.127956
0.605035,0.373597,0.035685,0.255297,0.393629,0.079845,0.073538,0.132732
0.608368,0.379279,0.034861,0.250125,0.392209,0.079191,0.075998,0.135594
0.608982,0.387619,0.033615,0.238688,0.388058,0.079124,0.084427,0.142591
0.603131,0.392965,0.032644,0.225586,0.379945,0.079181,0.094263,0.151493
0.599759,0.395859,0.032221,0.218792,0.376228,0.079954,0.101016,0.156041
0.591959,0.402169,0.031319,0.207844,0.366859,0.083305,0.114192,0.164708
0.582389,0.410740,0.031016,0.199753,0.358782,0.086703,0.125275,0.173126
0.578338,0.415733,0.031251,0.197227,0.359502,0.088537,0.129948,0.177312
0.574937,0.421330,0.032603,0.192042,0.359148,0.090770,0.141826,0.184648
0.571346,0.429782,0.034773,0.187798,0.356523,0.092817,0.159539,0.190776
0.558189,0.424103,0.036804,0.178584,0.342632,0.093873,0.181269,0.197465
0.550350,0.421745,0.037203,0.175684,0.338902,0.093946,0.188320,0.201071
0.542614,0.422185,0.037540,0.172865,0.334989,0.093600,0.194990,0.204609
0.523491,0.422105,0.037251,0.167907,0.327873,0.093075,0.209026,0.210350
0.504100,0.422899,0.037231,0.162785,0.325327,0.092488,0.219410,0.216791
0.493569,0.423071,0.037026,0.156736,0.323409,0.092480,0.223851,0.219211
0.471573,0.430282,0.036986,0.144828,0.314038,0.091606,0.233034,0.222748
0.464941,0.432340,0.036766,0.138905,0.309252,0.090612,0.239376,0.223600
0.453730,0.443742,0.036624,0.123641,0.296530,0.090157,0.256847,0.227029
0.445420,0.450330,0.037105,0.114968,0.289048,0.089870,0.266223,0.230375
0.428463,0.455040,0.038703,0.102844,0.279449,0.088876,0.278520,0.228733
0.420654,0.456945,0.039077,0.100313,0.277176,0.088471,0.281892,0.228304
0.409507,0.463061,0.039661,0.096464,0.272380,0.087726,0.287523,0.228646
0.397352,0.469796,0.040115,0.095711,0.267807,0.087090,0.291924,0.229290
0.385687,0.476963,0.040471,0.096228,0.262066,0.086912,0.295558,0.232164
0.378695,0.484613,0.041463,0.092480,0.251740,0.085571,0.305795,0.240844
0.380311,0.486225,0.042155,0.091438,0.248831,0.084991,0.308701,0.243884
0.384962,0.489619,0.043238,0.089693,0.244739,0.083029,0.313241,0.248365
0.387930,0.488637,0.044014,0.088586,0.239811,0.079977,0.316812,0.252124
0.389196,0.485523,0.044315,0.087894,0.236723,0.078490,0.318522,0.254552
0.389440,0.483357,0.045254,0.086953,0.229655,0.075498,0.319410,0.259661
0.386603,0.484284,0.045840,0.085356,0.223754,0.072617,0.314364,0.257119
0.385816,0.485558,0.046068,0.084962,0.219976,0.071151,0.310565,0.255155
0.393955,0.487655,0.046572,0.082477,0.206000,0.067624,0.308802,0.251434
0.397272,0.489312,0.046557,0.079872,0.187318,0.065724,0.310041,0.247475
0.396207,0.489228,0.046323,0.078557,0.177902,0.065210,0.310486,0.244651
0.391593,0.481626,0.045809,0.076592,0.163657,0.064477,0.311181,0.242390
0.392526,0.472357,0.045263,0.074457,0.150647,0.063201,0.306775,0.237658
0.394126,0.467741,0.044971,0.073863,0.145309,0.062233,0.304471,0.234541
0.396179,0.465687,0.044723,0.073218,0.142068,0.061212,0.301260,0.231791
0.396846,0.451600,0.043595,0.072471,0.136135,0.053652,0.285811,0.227111
0.399962,0.428435,0.041728,0.074252,0.129296,0.046685,0.272696,0.218623
0.402771,0.424143,0.039521,0.073510,0.121755,0.043106,0.262892,0.213567
0.400559,0.422797,0.038014,0.071825,0.118050,0.041604,0.255152,0.211502
0.394604,0.416571,0.035658,0.068822,0.112515,0.039438,0.242410,0.208400
0.390257,0.411994,0.033960,0.066075,0.108551,0.037639,0.231097,0.206282
0.395602,0.404519,0.032744,0.063157,0.103369,0.036666,0.223881,0.201497
0.401875,0.400370,0.031079,0.060879,0.104985,0.035812,0.210746,0.199079
0.404302,0.402799,0.030709,0.060813,0.104157,0.035594,0.207511,0.198396
0.409556,0.401069,0.029270,0.060739,0.105685,0.034510,0.197505,0.201729
0.405061,0.395797,0.027471,0.060810,0.106153,0.033343,0.186337,0.203796
0.405079,0.393768,0.026773,0.060659,0.106076,0.032601,0.180670,0.205718
0.406356,0.386385,0.024699,0.060519,0.105588,0.032131,0.170844,0.207524
0.409997,0.381655,0.023858,0.060420,0.105242,0.032162,0.163649,0.208361
0.410674,0.378750,0.022744,0.059886,0.104758,0.032029,0.160046,0.209240
0.411879,0.375398,0.021801,0.059294,0.105187,0.031916,0.156339,0.209439
0.412588,0.369981,0.020327,0.057261,0.107946,0.034014,0.151035,0.209808
0.416049,0.362457,0.019273,0.054401,0.110944,0.036487,0.147251,0.210991
0.422335,0.353191,0.018465,0.050562,0.115709,0.038846,0.148232,0.220102
0.424787,0.348458,0.018310,0.048822,0.118644,0.039846,0.148971,0.224053
0.439567,0.350502,0.017285,0.047215,0.125695,0.045072,0.145367,0.232843
0.443364,0.355890,0.016128,0.046257,0.129961,0.049142,0.143635,0.239247
0.445816,0.359638,0.015943,0.046245,0.135590,0.051674,0.143404,0.244659
0.451194,0.363784,0.015787,0.046820,0.143517,0.054267,0.143271,0.251843
0.467000,0.378385,0.015710,0.046927,0.163005,0.058641,0.142557,0.262418
0.474961,0.383846,0.015715,0.047079,0.173120,0.060671,0.142196,0.265762
0.493351,0.390834,0.014524,0.047097,0.198663,0.065385,0.142338,0.279909
0.495902,0.388348,0.014105,0.046651,0.212106,0.068003,0.140022,0.294845
0.494884,0.387310,0.013984,0.046478,0.217319,0.069046,0.138022,0.301389
0.499713,0.386740,0.013794,0.046318,0.225719,0.071828,0.132614,0.317083
0.502934,0.386230,0.013627,0.046175,0.228463,0.073081,0.130093,0.327101
0.508019,0.386307,0.013485,0.045763,0.230718,0.074236,0.128167,0.337285
0.518457,0.386303,0.014750,0.044576,0.234570,0.078173,0.126043,0.357507
0.523877,0.386259,0.015241,0.044063,0.236064,0.080004,0.125232,0.367061
0.548627,0.395640,0.018302,0.042600,0.238032,0.088386,0.123284,0.399328
0.564739,0.408619,0.020813,0.041564,0.239308,0.092843,0.123888,0.416138
0.574839,0.417926,0.022454,0.040766,0.239943,0.096359,0.124164,0.426206
0.596918,0.436075,0.026082,0.038302,0.243575,0.110061,0.131725,0.460844
0.608032,0.441302,0.029678,0.039422,0.248834,0.121407,0.135250,0.479168
0.614153,0.446003,0.031491,0.040273,0.250839,0.126765,0.137002,0.489293
0.630024,0.456471,0.034627,0.041604,0.258202,0.136532,0.140232,0.509223
0.638569,0.461007,0.035982,0.042120,0.261508,0.140475,0.141027,0.520072
0.642548,0.467069,0.037128,0.042557,0.264307,0.144476,0.140450,0.531648
0.659705,0.485629,0.042346,0.045294,0.268471,0.155050,0.140886,0.559162
0.672981,0.488452,0.046062,0.045562,0.271120,0.161970,0.142829,0.578323
0.679602,0.489402,0.047732,0.045666,0.271385,0.164721,0.143638,0.588133
0.696827,0.491039,0.051225,0.045837,0.275288,0.170392,0.146959,0.607283
0.719891,0.501594,0.055848,0.045889,0.279442,0.178502,0.154379,0.626255
0.739244,0.509705,0.060387,0.046059,0.283162,0.185068,0.158213,0.641256
0.748151,0.513492,0.062311,0.045996,0.286489,0.189450,0.160455,0.657640
0.754590,0.525076,0.063689,0.046125,0.288367,0.192491,0.162391,0.670402
0.765295,0.538233,0.064932,0.046364,0.289044,0.193459,0.163818,0.678921
0.771807,0.548148,0.066038,0.046450,0.289875,0.196270,0.163466,0.682423
0.779933,0.556745,0.068369,0.046679,0.293057,0.198713,0.161430,0.680301
0.789160,0.548149,0.071942,0.043945,0.297952,0.203315,0.161414,0.687707
0.791210,0.544648,0.072240,0.041586,0.289235,0.203209,0.160211,0.681078
0.787417,0.539567,0.072550,0.039352,0.275004,0.203002,0.159007,0.673531
0.785197,0.539505,0.072756,0.038418,0.266779,0.202602,0.158282,0.669652
0.774902,0.540083,0.073818,0.036944,0.245225,0.203102,0.155742,0.655053
0.769837,0.541485,0.075592,0.037162,0.234064,0.205031,0.153945,0.635989
0.760107,0.539618,0.076572,0.037788,0.239503,0.206543,0.152746,0.620451
0.752571,0.537048,0.077097,0.038027,0.242695,0.207189,0.152324,0.610517
0.726000,0.535868,0.077123,0.039313,0.251281,0.207280,0.149066,0.576454
0.705791,0.535626,0.076254,0.041066,0.255011,0.206852,0.147015,0.555873
0.694389,0.535932,0.075692,0.042096,0.256459,0.206498,0.145741,0.547602
0.665533,0.532490,0.073664,0.044970,0.260643,0.202280,0.139574,0.519229
0.648813,0.524119,0.071186,0.047807,0.263044,0.199786,0.136535,0.497899
0.641053,0.519807,0.071398,0.049180,0.266247,0.198412,0.134313,0.486720
0.630544,0.510924,0.071664,0.050905,0.272071,0.195501,0.126513,0.463060
0.621826,0.502619,0.069862,0.050817,0.276175,0.190949,0.120001,0.444340
0.617524,0.499298,0.069468,0.050671,0.278452,0.188275,0.116669,0.435075
0.601849,0.496590,0.069378,0.050484,0.277322,0.181743,0.109794,0.411313
0.591196,0.496669,0.069626,0.051075,0.279876,0.179534,0.107116,0.393776
0.583855,0.496891,0.069034,0.051314,0.280038,0.178615,0.106563,0.386696
0.556049,0.505116,0.066754,0.050688,0.280231,0.178085,0.104006,0.354816
0.548932,0.509904,0.066645,0.050797,0.281555,0.178724,0.104288,0.345817
0.532718,0.518586,0.067353,0.050967,0.287601,0.179744,0.103738,0.332513
0.517794,0.522729,0.067620,0.051687,0.295406,0.180583,0.107316,0.325124
0.509618,0.525201,0.067316,0.052021,0.299145,0.181891,0.109683,0.323684
0.496942,0.529875,0.067784,0.052548,0.305202,0.184404,0.114248,0.317788
0.481821,0.534402,0.068502,0.053178,0.307702,0.186467,0.117359,0.305146
0.480253,0.533710,0.068674,0.053153,0.307997,0.186449,0.118034,0.303076
0.471716,0.538000,0.068575,0.053116,0.307246,0.184974,0.120667,0.296062
0.461357,0.546812,0.067561,0.053116,0.306141,0.183563,0.122560,0.291551
0.452953,0.555484,0.065848,0.052678,0.298995,0.180115,0.122373,0.282730
0.441327,0.564865,0.066301,0.052911,0.292171,0.175845,0.121216,0.268917
0.435660,0.568706,0.066935,0.053001,0.290773,0.174592,0.121417,0.263155
0.428300,0.572188,0.068240,0.053077,0.289436,0.173572,0.121707,0.257521
0.415176,0.577109,0.071148,0.054287,0.286079,0.171815,0.123732,0.253625
0.409572,0.580249,0.073089,0.055303,0.284658,0.171700,0.124574,0.251878
0.397049,0.584964,0.076671,0.057712,0.283426,0.173636,0.127717,0.250873
0.395165,0.579173,0.077647,0.057421,0.281751,0.172463,0.131101,0.251296
0.389459,0.570139,0.077258,0.056940,0.274051,0.169929,0.132029,0.244940
0.389717,0.566452,0.076820,0.058134,0.262372,0.167221,0.131591,0.241041
0.390698,0.564226,0.076473,0.058698,0.258789,0.166298,0.131419,0.239479
0.394329,0.559090,0.077184,0.061413,0.252824,0.163657,0.130910,0.237063
0.395010,0.554168,0.077705,0.061805,0.250948,0.163633,0.130812,0.236043
0.395920,0.553118,0.078322,0.062232,0.251130,0.164318,0.130886,0.236230
0.394704,0.555768,0.079285,0.061801,0.248491,0.164743,0.131890,0.235800
0.393503,0.555684,0.079739,0.060927,0.247919,0.164773,0.132404,0.235692
0.389774,0.551401,0.078686,0.058681,0.243283,0.162230,0.133315,0.238638
0.385626,0.549304,0.077733,0.057679,0.241931,0.159660,0.133666,0.239685
0.381237,0.545827,0.076926,0.056331,0.240146,0.157279,0.133963,0.241292
0.376751,0.538976,0.075665,0.054021,0.236069,0.151868,0.134988,0.247299
0.369313,0.521004,0.072190,0.052073,0.229451,0.145993,0.134941,0.250140
0.365224,0.514495,0.070500,0.052119,0.227299,0.143869,0.134960,0.249518
0.362783,0.506274,0.069069,0.051860,0.223410,0.141190,0.134933,0.252771
0.358287,0.490708,0.067054,0.050365,0.218113,0.136296,0.132969,0.261923
0.354237,0.473459,0.065211,0.049428,0.216956,0.131613,0.130791,0.266897
0.343876,0.436837,0.057818,0.048445,0.208847,0.119238,0.123693,0.271902
0.342453,0.431902,0.056186,0.048216,0.205252,0.116098,0.120669,0.273049
0.341595,0.427236,0.054628,0.047725,0.201008,0.113622,0.116894,0.274599
0.341762,0.423377,0.053122,0.047259,0.197699,0.110658,0.112091,0.273525
0.343144,0.412920,0.050492,0.046730,0.191651,0.104353,0.104686,0.278792
0.341794,0.406943,0.048964,0.046425,0.189200,0.100594,0.102116,0.281992
0.340751,0.399366,0.046278,0.046084,0.185242,0.095205,0.100419,0.287577
0.342869,0.388814,0.044346,0.046005,0.183328,0.092570,0.099898,0.293575
0.338781,0.377059,0.042961,0.046093,0.190092,0.092900,0.098083,0.298781
0.336818,0.365238,0.041969,0.046128,0.194653,0.094176,0.096511,0.302879
0.332106,0.353053,0.041828,0.046316,0.197646,0.096486,0.093705,0.306462
0.326321,0.344174,0.042951,0.046677,0.199915,0.098505,0.093488,0.311648
0.322570,0.333977,0.041347,0.046573,0.200814,0.101973,0.096098,0.321767
0.321649,0.324788,0.038398,0.045909,0.201127,0.105386,0.102615,0.335603
0.323899,0.320645,0.037038,0.045380,0.201420,0.106951,0.106024,0.341359
0.325137,0.314321,0.035073,0.044334,0.201891,0.109824,0.111037,0.346941
0.326418,0.301104,0.031971,0.042375,0.203329,0.115023,0.120826,0.355720
0.325096,0.295157,0.030768,0.041626,0.203592,0.118611,0.126722,0.358571
0.316159,0.286878,0.029111,0.040198,0.204237,0.128825,0.144872,0.372794
0.313455,0.290847,0.030882,0.040816,0.203446,0.140751,0.165844,0.399870
0.314886,0.296318,0.032668,0.039331,0.207190,0.154396,0.188746,0.431178
0.315918,0.303221,0.034459,0.037254,0.211095,0.167968,0.205055,0.450009
0.316471,0.305902,0.035731,0.036226,0.214268,0.175227,0.215266,0.457994
0.328682,0.309669,0.038979,0.033605,0.222679,0.192863,0.241701,0.487328
0.333785,0.309201,0.042609,0.032453,0.226988,0.201043,0.254768,0.504454
0.334427,0.308569,0.043790,0.032006,0.228432,0.205812,0.261481,0.512760
0.335453,0.309026,0.046631,0.031335,0.232804,0.219953,0.275440,0.521292
0.338445,0.311447,0.049630,0.030745,0.233931,0.232769,0.293113,0.528282
0.337012,0.313589,0.050960,0.030466,0.233789,0.239408,0.302516,0.531957
0.336381,0.315681,0.052565,0.030229,0.233670,0.245545,0.310770,0.534366
0.332885,0.325165,0.061210,0.028358,0.237764,0.271206,0.349361,0.552554
0.337524,0.329086,0.066334,0.027535,0.240276,0.297554,0.376894,0.548972
0.343273,0.330830,0.068488,0.028299,0.241609,0.319135,0.398280,0.544819
0.344420,0.331574,0.070493,0.028660,0.241445,0.329614,0.406957,0.542605
0.347936,0.331778,0.073627,0.029477,0.240072,0.349750,0.423182,0.541588
0.349840,0.330881,0.076851,0.030276,0.239573,0.369489,0.436968,0.541702
0.349993,0.330439,0.078314,0.030586,0.238948,0.378364,0.445513,0.543492
0.351340,0.338125,0.086805,0.030752,0.234210,0.418496,0.483581,0.542182
0.351069,0.340320,0.089461,0.030637,0.234145,0.425381,0.488964,0.538221
0.342845,0.349786,0.097638,0.031699,0.233968,0.439870,0.501176,0.527783
0.342769,0.358771,0.105527,0.032942,0.232642,0.449962,0.515848,0.529221
0.344814,0.362983,0.109212,0.034070,0.233701,0.455996,0.526166,0.531494
0.349278,0.366443,0.114789,0.035668,0.234979,0.466203,0.544750,0.535975
0.352386,0.369651,0.119001,0.036162,0.235751,0.479030,0.556989,0.538746
0.353467,0.371051,0.121016,0.036353,0.236050,0.483963,0.560851,0.538263
0.358752,0.373325,0.124117,0.036652,0.236718,0.489716,0.562235,0.528070
0.360989,0.373867,0.126298,0.036929,0.237612,0.492316,0.558360,0.515345
0.361830,0.373644,0.127144,0.037066,0.237244,0.491338,0.554347,0.508790
0.362451,0.374133,0.127859,0.037181,0.237866,0.490053,0.550090,0.504280
0.362886,0.377701,0.128976,0.037313,0.241026,0.485236,0.540514,0.496239
0.364214,0.379423,0.129120,0.037449,0.243431,0.483462,0.534970,0.491415
0.365874,0.381554,0.129395,0.037468,0.245240,0.481403,0.529283,0.486687
0.368105,0.383456,0.129131,0.037145,0.247873,0.475133,0.516716,0.470988
0.367970,0.383193,0.129348,0.036530,0.250040,0.472899,0.510588,0.461013
0.366390,0.386300,0.131449,0.035601,0.254564,0.468926,0.497796,0.441272
0.364512,0.392274,0.132947,0.034936,0.253180,0.461445,0.481837,0.420260
0.363332,0.393615,0.132800,0.034647,0.253155,0.456537,0.473949,0.410317
0.356544,0.413444,0.131247,0.037182,0.253044,0.426719,0.430700,0.364108
0.354752,0.417511,0.129886,0.037404,0.252091,0.423560,0.423699,0.354262
0.354768,0.427600,0.127931,0.037770,0.250162,0.419039,0.410792,0.338961
0.355671,0.435418,0.127815,0.038220,0.249885,0.413852,0.404358,0.332834
0.356382,0.440280,0.126722,0.038719,0.250186,0.408218,0.400241,0.327836
0.356472,0.452526,0.124935,0.041237,0.251821,0.400385,0.387973,0.318525
0.356095,0.461560,0.125190,0.044341,0.256508,0.391817,0.374744,0.308346
0.356783,0.465635,0.124232,0.045578,0.259279,0.386629,0.367565,0.303954
0.361738,0.475679,0.123785,0.047351,0.262118,0.376066,0.351803,0.292415
0.366329,0.490640,0.123259,0.050282,0.270662,0.367885,0.338405,0.286727
0.372709,0.519770,0.122451,0.053397,0.282406,0.338084,0.304145,0.282551
0.375520,0.534401,0.120294,0.053687,0.286827,0.324931,0.293503,0.277068
0.375811,0.540106,0.119686,0.053757,0.288874,0.319179,0.288778,0.273336
0.374797,0.553121,0.116824,0.053907,0.294270,0.306949,0.276631,0.264657
0.372227,0.553796,0.116290,0.053943,0.296555,0.303054,0.270719,0.261198
0.369031,0.553240,0.116369,0.054045,0.299216,0.298133,0.266036,0.257351
0.363840,0.555673,0.116628,0.054659,0.304674,0.293748,0.257728,0.252375
0.356269,0.569487,0.115728,0.055566,0.308643,0.287658,0.244731,0.247550
0.351479,0.576722,0.115883,0.056244,0.306119,0.282212,0.239205,0.243554
0.343972,0.578596,0.112108,0.056053,0.297991,0.272085,0.226621,0.236917
0.333220,0.581642,0.109319,0.054862,0.291523,0.260341,0.208495,0.228218
0.328046,0.596679,0.107221,0.054063,0.291621,0.241404,0.186429,0.215397
0.324889,0.605744,0.105568,0.054079,0.296022,0.232840,0.176774,0.211584
0.319215,0.615893,0.104406,0.054090,0.301583,0.226915,0.172448,0.210669
0.311912,0.631169,0.105159,0.053982,0.304554,0.222936,0.171157,0.209843
0.306032,0.649423,0.105767,0.053905,0.304272,0.220355,0.170430,0.207420
0.304608,0.656754,0.106047,0.053875,0.303556,0.219003,0.169789,0.206825
0.297884,0.669485,0.106447,0.054467,0.300576,0.214891,0.168020,0.206689
0.295843,0.669934,0.106398,0.054813,0.299632,0.214281,0.167310,0.206398
0.288353,0.667310,0.101633,0.054615,0.299738,0.210135,0.165466,0.204878
0.282605,0.660098,0.098794,0.054338,0.301730,0.208457,0.164792,0.203770
0.276318,0.649099,0.096759,0.053752,0.299803,0.207867,0.164274,0.202752
0.272366,0.644063,0.095192,0.052417,0.296853,0.207156,0.164037,0.202379
0.269494,0.629415,0.092013,0.049830,0.288162,0.202923,0.163073,0.198817
0.266855,0.619528,0.091212,0.049559,0.285892,0.198185,0.162143,0.196994
0.264286,0.616175,0.091253,0.049916,0.286850,0.195662,0.161036,0.194534
0.254787,0.607388,0.090693,0.049032,0.283215,0.189001,0.153438,0.189040
0.251507,0.599222,0.088263,0.045126,0.274277,0.182198,0.145147,0.182683
0.245604,0.582742,0.084094,0.041961,0.265110,0.179343,0.137790,0.173717
0.239713,0.569872,0.080694,0.038962,0.254618,0.176057,0.133815,0.165210
0.235306,0.563402,0.079098,0.037165,0.248596,0.172940,0.131555,0.159845
0.225392,0.557847,0.076877,0.034789,0.239845,0.167613,0.126372,0.152573
0.216463,0.551600,0.075362,0.033165,0.233714,0.161458,0.118594,0.146618
0.213262,0.549543,0.074708,0.032079,0.229568,0.158123,0.113960,0.145352
0.207133,0.547255,0.073079,0.030487,0.225229,0.148955,0.106257,0.142709
0.202426,0.545655,0.071720,0.029435,0.225631,0.140291,0.097682,0.137342
0.200924,0.545583,0.070804,0.029027,0.226069,0.136534,0.093386,0.133676
0.208621,0.534583,0.063321,0.027047,0.223867,0.120112,0.077437,0.122877
0.212270,0.527732,0.060834,0.026677,0.223352,0.117089,0.074728,0.122301
0.217064,0.517859,0.055521,0.024445,0.222474,0.114334,0.067996,0.119551
0.222222,0.514048,0.050858,0.022629,0.221783,0.112816,0.062873,0.115483
0.229953,0.518407,0.048119,0.021280,0.219075,0.112226,0.058414,0.114113
0.234242,0.520044,0.045926,0.020684,0.217054,0.111682,0.056702,0.114092
0.238625,0.514657,0.041515,0.019753,0.212926,0.110655,0.054015,0.115807
0.239884,0.507310,0.037661,0.018487,0.208049,0.108358,0.051737,0.118577
0.240416,0.506415,0.035900,0.017902,0.201773,0.106357,0.049771,0.121766
0.240969,0.504393,0.035229,0.017824,0.199424,0.105390,0.048988,0.123826
0.240392,0.495405,0.032614,0.017812,0.195759,0.104781,0.046388,0.130086
0.239597,0.474888,0.029873,0.018125,0.196263,0.104862,0.044071,0.140747
0.240766,0.472416,0.029198,0.018312,0.198652,0.104910,0.044117,0.143494
0.242503,0.472036,0.027996,0.017713,0.204633,0.104811,0.045029,0.150033
0.244591,0.470489,0.027135,0.017147,0.207953,0.104374,0.046938,0.156564
0.246273,0.469644,0.026801,0.016927,0.207637,0.103892,0.047877,0.160022
0.252337,0.478340,0.027600,0.016882,0.205530,0.103778,0.051254,0.170001
0.254310,0.487242,0.028708,0.017163,0.204308,0.104296,0.053417,0.176437
0.255968,0.488735,0.029256,0.017236,0.205307,0.105354,0.054311,0.178843
0.255829,0.494356,0.030206,0.018881,0.210783,0.115694,0.057865,0.190516
0.256576,0.492903,0.030139,0.019299,0.211536,0.118434,0.058719,0.193505
0.258567,0.488532,0.029159,0.019397,0.210590,0.123131,0.061002,0.199748
0.260218,0.488184,0.027663,0.019535,0.209704,0.127607,0.064891,0.204283
0.259037,0.494010,0.026592,0.019779,0.211105,0.131356,0.067701,0.207200
0.258384,0.498488,0.026349,0.020003,0.210995,0.132829,0.069202,0.208714
0.255617,0.513158,0.026032,0.021055,0.214738,0.142296,0.080509,0.222464
0.260233,0.520515,0.030406,0.023870,0.223862,0.154010,0.086200,0.233407
0.262867,0.521082,0.032443,0.024967,0.225245,0.161641,0.089539,0.240990
0.263947,0.521596,0.033114,0.025634,0.227407,0.166590,0.091432,0.244746
0.265075,0.519753,0.034153,0.027094,0.236081,0.175579,0.095514,0.250555
0.266647,0.517391,0.034885,0.027555,0.238146,0.179547,0.097266,0.254035
0.268048,0.515329,0.035506,0.027946,0.237217,0.182681,0.098679,0.257093
0.270360,0.514623,0.036486,0.028786,0.238010,0.186819,0.101794,0.262984
0.268835,0.520896,0.036938,0.029582,0.239233,0.189225,0.104012,0.267388
0.266872,0.524397,0.037476,0.029891,0.239821,0.190502,0.104786,0.270441
0.261278,0.528199,0.038009,0.030612,0.241909,0.194509,0.106101,0.274309
0.263063,0.529712,0.038517,0.031595,0.245280,0.196979,0.109508,0.276361
0.264186,0.524238,0.039263,0.032325,0.249042,0.202015,0.112260,0.277272
0.261835,0.514069,0.039196,0.032870,0.252397,0.206308,0.114288,0.275934
0.255578,0.500989,0.039147,0.033542,0.253851,0.210527,0.115676,0.272847
0.249845,0.498109,0.039112,0.034024,0.253661,0.214456,0.116383,0.268320
0.245797,0.499779,0.038727,0.034553,0.254275,0.217939,0.116325,0.262714
0.244135,0.497482,0.038273,0.034436,0.252856,0.219324,0.115230,0.258257
0.248710,0.493579,0.037055,0.034212,0.247469,0.223190,0.110383,0.239239
0.258009,0.488439,0.036690,0.033870,0.242982,0.225274,0.107802,0.228864
0.263886,0.479113,0.036429,0.034000,0.237199,0.227858,0.104482,0.219558
0.268315,0.478193,0.036242,0.034544,0.230532,0.230396,0.101326,0.212275
0.270239,0.485455,0.036876,0.034933,0.228167,0.232960,0.097859,0.206695
0.270253,0.494149,0.038872,0.035144,0.225830,0.234283,0.095931,0.205282
0.270367,0.504145,0.040560,0.034672,0.222916,0.234697,0.093434,0.203701
0.273033,0.512322,0.042480,0.034909,0.222474,0.240763,0.097345,0.207916
0.273508,0.515147,0.045432,0.034421,0.224931,0.243132,0.102887,0.219781
0.271519,0.520065,0.048059,0.032960,0.230838,0.242708,0.110358,0.226990
0.270554,0.521045,0.048939,0.032078,0.234542,0.242055,0.113660,0.231469
0.265570,0.521322,0.052609,0.030124,0.242885,0.240224,0.118960,0.238710
0.257423,0.507111,0.058826,0.028420,0.248359,0.235975,0.124410,0.246150
0.256102,0.503941,0.065048,0.028181,0.250352,0.231603,0.121767,0.249979
0.256988,0.500445,0.070501,0.028631,0.253888,0.226289,0.120035,0.253576
0.255028,0.497595,0.071809,0.027775,0.253691,0.222692,0.120138,0.255250
0.248694,0.493724,0.075404,0.026267,0.259182,0.210750,0.124675,0.258896
0.245505,0.491045,0.076766,0.024744,0.262430,0.201673,0.128480,0.260609
0.243816,0.490797,0.077295,0.023941,0.261221,0.196602,0.130044,0.261122
0.240012,0.491806,0.078377,0.022687,0.258717,0.189680,0.133311,0.261824
0.236584,0.494987,0.080440,0.021210,0.254070,0.181249,0.138036,0.266618
0.235839,0.492132,0.081491,0.020720,0.251345,0.179227,0.139856,0.267857
0.236394,0.488467,0.082380,0.020528,0.251152,0.177830,0.142625,0.268395
0.236927,0.485761,0.084957,0.020290,0.251232,0.170101,0.149905,0.268606
0.231912,0.479283,0.086384,0.020037,0.250192,0.164907,0.151376,0.270911
0.227290,0.477755,0.087485,0.019782,0.250136,0.157935,0.155274,0.273985
0.227858,0.481101,0.087814,0.019415,0.250802,0.157053,0.157409,0.275289
0.231079,0.482934,0.088427,0.019152,0.251054,0.155615,0.159616,0.276993
0.232151,0.481438,0.088761,0.018950,0.252534,0.154022,0.160638,0.278172
0.232744,0.481280,0.089315,0.018779,0.252814,0.152807,0.161925,0.278588
0.230228,0.484636,0.090180,0.018417,0.253674,0.148781,0.164025,0.279062
0.227790,0.487634,0.090516,0.018233,0.255403,0.147507,0.164846,0.279229
0.225206,0.493082,0.090837,0.018078,0.258523,0.146342,0.165700,0.279610
0.215585,0.501707,0.091866,0.017908,0.262938,0.143519,0.167995,0.280987
0.209191,0.505502,0.092514,0.017876,0.261922,0.142238,0.168945,0.281981
0.197609,0.510071,0.093526,0.017295,0.260443,0.139324,0.170390,0.283521
0.185253,0.503472,0.094904,0.016117,0.258746,0.135575,0.171606,0.283437
0.179016,0.497484,0.094528,0.015603,0.260278,0.133300,0.171497,0.280972
0.173677,0.486442,0.091633,0.015255,0.262581,0.131461,0.170849,0.275175
0.173020,0.478090,0.090586,0.015299,0.262625,0.130238,0.170633,0.273058
0.168329,0.465651,0.088267,0.015285,0.263446,0.121400,0.164277,0.263392
0.164480,0.454495,0.084183,0.015380,0.260794,0.112948,0.156632,0.248924
0.163058,0.449929,0.082316,0.015383,0.258364,0.109494,0.151541,0.242590
0.160969,0.441460,0.079397,0.015288,0.249285,0.104045,0.142532,0.230378
0.160402,0.437637,0.078264,0.015205,0.245270,0.102110,0.138821,0.224771
0.161631,0.432867,0.076743,0.015136,0.241871,0.100471,0.135470,0.220042
0.167199,0.412630,0.069282,0.016073,0.232167,0.094510,0.122529,0.205033
0.169581,0.409620,0.067974,0.016384,0.230548,0.093149,0.119678,0.202219
0.170432,0.402044,0.061360,0.016138,0.227280,0.090790,0.114412,0.192281
0.169155,0.398016,0.058149,0.015705,0.224776,0.089680,0.112199,0.187405
0.167706,0.395440,0.055543,0.015628,0.221760,0.088914,0.110361,0.182246
0.165767,0.390207,0.049607,0.015608,0.214712,0.087251,0.105336,0.175146
0.166320,0.387589,0.045791,0.016167,0.205017,0.086139,0.097703,0.166172
0.167372,0.386660,0.044480,0.016385,0.199992,0.085747,0.094589,0.162459
0.169690,0.380080,0.042431,0.016693,0.192502,0.085505,0.089994,0.155593
0.171733,0.377946,0.041528,0.016992,0.189599,0.084644,0.087688,0.153474
0.174074,0.372760,0.040377,0.017245,0.189336,0.084047,0.085748,0.151750
0.177003,0.360612,0.038579,0.017641,0.189669,0.082757,0.085354,0.146111
0.183075,0.350512,0.035855,0.018060,0.193162,0.081757,0.083951,0.141301
0.188472,0.342767,0.034648,0.017951,0.191361,0.080395,0.080471,0.137844
0.193161,0.331174,0.032064,0.017454,0.188901,0.079336,0.079470,0.132139
0.194976,0.327916,0.031238,0.017162,0.187613,0.078353,0.079290,0.129246
0.199329,0.321602,0.029946,0.016883,0.185245,0.076213,0.082629,0.123747
0.201254,0.316854,0.029445,0.016917,0.183580,0.074436,0.084790,0.122142
0.207248,0.310112,0.028662,0.017153,0.179537,0.067766,0.088571,0.121140
0.210967,0.302621,0.028100,0.017633,0.177790,0.062071,0.090864,0.120113
0.227614,0.284129,0.025920,0.018917,0.171684,0.052621,0.092619,0.121320
0.231605,0.277897,0.025555,0.019069,0.170019,0.051573,0.094978,0.124060
0.242006,0.263234,0.025622,0.019305,0.164056,0.049891,0.101206,0.128125
0.253414,0.250256,0.025486,0.019433,0.159162,0.048438,0.105438,0.132517
0.257067,0.247042,0.025716,0.019462,0.157520,0.047354,0.107310,0.134758
0.266896,0.241262,0.026168,0.021417,0.155493,0.045857,0.110954,0.140060
0.278260,0.238338,0.028376,0.023790,0.155211,0.044558,0.115171,0.145656
0.296192,0.234191,0.032501,0.026459,0.151178,0.044343,0.120616,0.151100
0.307624,0.231828,0.034473,0.027788,0.148345,0.045001,0.123121,0.154011
0.311499,0.232662,0.035831,0.028172,0.148222,0.045637,0.126593,0.155342
0.318440,0.234556,0.037952,0.028881,0.146073,0.046912,0.133504,0.158949
0.320550,0.235835,0.038853,0.029296,0.144825,0.047456,0.136620,0.159325
0.325822,0.239395,0.040333,0.030678,0.141472,0.048574,0.141691,0.159584
0.336411,0.249651,0.043621,0.033434,0.139527,0.050481,0.148025,0.161794
0.344111,0.257512,0.045541,0.035660,0.139669,0.052420,0.154126,0.164393
0.349261,0.260855,0.046252,0.036281,0.138583,0.053086,0.156482,0.166103
0.358113,0.269656,0.049092,0.036589,0.137096,0.054607,0.160206,0.169536
0.366508,0.278428,0.053113,0.037237,0.135991,0.056239,0.164137,0.173971
0.371328,0.281412,0.055906,0.039099,0.134560,0.056797,0.166130,0.175286
0.376532,0.286531,0.059802,0.040969,0.133263,0.057166,0.167432,0.174572
0.377335,0.286734,0.060874,0.041424,0.132760,0.057290,0.167961,0.173910
0.379600,0.289109,0.062783,0.042758,0.134290,0.058704,0.168697,0.173011
0.382394,0.293636,0.065502,0.043713,0.137636,0.059136,0.166758,0.170747
0.382460,0.295369,0.066664,0.044288,0.139103,0.059274,0.166343,0.168856
0.382892,0.298397,0.069136,0.045829,0.137149,0.059090,0.163850,0.164307
0.383312,0.302652,0.070753,0.047068,0.131672,0.057665,0.160891,0.159372
0.382035,0.304291,0.071309,0.047742,0.130365,0.057338,0.159805,0.156820
0.377782,0.307034,0.071433,0.048796,0.128321,0.058361,0.156686,0.151561
0.374472,0.308654,0.071279,0.049952,0.128453,0.059298,0.152303,0.147108
0.374170,0.309820,0.071047,0.050656,0.129123,0.060107,0.150162,0.145287
0.374066,0.311098,0.070851,0.051073,0.131865,0.062215,0.147209,0.143868
0.369203,0.314457,0.071018,0.051994,0.135830,0.066675,0.138183,0.140062
0.365026,0.315745,0.071300,0.052286,0.137221,0.069389,0.133986,0.137348
0.361633,0.318230,0.071741,0.052711,0.139229,0.074161,0.127163,0.133217
0.352999,0.313570,0.072169,0.053194,0.139190,0.080944,0.120325,0.128046
0.348115,0.311555,0.072269,0.053263,0.138993,0.082871,0.118539,0.126017
0.329621,0.307198,0.071940,0.053791,0.143906,0.090430,0.109026,0.123055
0.317743,0.307884,0.070912,0.054137,0.149316,0.093856,0.102122,0.120504
0.304759,0.304887,0.069312,0.055426,0.157783,0.100817,0.095190,0.113215
0.300157,0.304288,0.069348,0.055262,0.160187,0.106087,0.093335,0.111229
0.296598,0.302262,0.068564,0.055088,0.161367,0.110866,0.091490,0.109654
0.288391,0.300413,0.066286,0.054805,0.162742,0.118157,0.090263,0.106399
0.285989,0.297114,0.064482,0.054728,0.162750,0.120630,0.090725,0.104677
0.281403,0.292033,0.061663,0.054607,0.165641,0.126069,0.094002,0.104355
0.275874,0.287399,0.058856,0.054867,0.166363,0.128611,0.096538,0.107271
0.273810,0.285164,0.057374,0.054744,0.166421,0.129764,0.095789,0.108997
0.271078,0.288808,0.056268,0.053579,0.168648,0.135401,0.095269,0.114660
0.270488,0.289123,0.056397,0.053858,0.171187,0.137144,0.095746,0.117685
0.266889,0.287127,0.055515,0.053756,0.173161,0.139134,0.099071,0.122400
0.259313,0.282111,0.053964,0.052392,0.172916,0.139367,0.101175,0.128653
0.255599,0.281379,0.053362,0.051786,0.172911,0.139298,0.101537,0.132397
0.246423,0.280361,0.051935,0.050875,0.172957,0.138672,0.104891,0.139402
0.243485,0.280227,0.051489,0.050780,0.172441,0.138209,0.107068,0.142836
0.238349,0.281944,0.050140,0.050567,0.170025,0.137690,0.118098,0.152307
0.235644,0.285694,0.046810,0.047830,0.170586,0.139215,0.137435,0.167367
0.233964,0.284512,0.045365,0.046848,0.171855,0.139718,0.142066,0.171446
0.229492,0.281465,0.043777,0.044855,0.173888,0.141065,0.149032,0.178127
0.227424,0.278721,0.042717,0.044263,0.174427,0.141814,0.151467,0.181244
0.224554,0.276257,0.041457,0.043762,0.173297,0.142564,0.153467,0.184269
0.220538,0.270404,0.039052,0.042582,0.169741,0.144006,0.156223,0.188955
0.217278,0.268223,0.036707,0.040872,0.166547,0.145697,0.158338,0.192004
0.215909,0.271513,0.035053,0.039536,0.164556,0.146933,0.159879,0.195293
0.214300,0.275816,0.033868,0.038528,0.161082,0.146870,0.161024,0.198814
0.213633,0.279102,0.033019,0.037961,0.161003,0.146233,0.162633,0.201943
0.213144,0.281264,0.032680,0.037340,0.159626,0.145912,0.163881,0.204687
0.211695,0.281357,0.032149,0.036238,0.156586,0.144999,0.166005,0.211938
0.210817,0.281888,0.031437,0.035221,0.153367,0.144492,0.167617,0.220332
0.210581,0.282465,0.030967,0.035115,0.153041,0.143193,0.168213,0.223641
0.207007,0.283732,0.030232,0.034741,0.152476,0.140807,0.169126,0.229548
0.204805,0.284930,0.029705,0.034297,0.151476,0.138231,0.169871,0.234938
0.204046,0.285509,0.029501,0.034125,0.151201,0.136562,0.170191,0.236740
0.202045,0.285960,0.029182,0.035114,0.152105,0.134623,0.170586,0.239771
0.200013,0.286568,0.029087,0.036730,0.152515,0.133218,0.170660,0.237203
0.198615,0.285526,0.029057,0.038681,0.145600,0.130542,0.171577,0.237562
0.197900,0.287775,0.029043,0.039035,0.142272,0.128705,0.171746,0.241873
0.195753,0.289515,0.028636,0.038385,0.140342,0.125060,0.171771,0.243773
0.190000,0.290961,0.027242,0.036778,0.137950,0.115143,0.170972,0.244233
0.184960,0.291499,0.026243,0.035722,0.142653,0.108294,0.167672,0.243931
0.182252,0.292779,0.025855,0.035180,0.145456,0.105571,0.165152,0.243816
0.176178,0.293178,0.025357,0.034831,0.147799,0.099849,0.158657,0.240687
0.171650,0.292804,0.025023,0.034464,0.153115,0.097035,0.151338,0.234989
0.168842,0.292746,0.024900,0.034331,0.155406,0.095911,0.148358,0.231336
0.163644,0.283291,0.023134,0.034198,0.158289,0.092423,0.142950,0.226176
0.155628,0.268697,0.020196,0.032223,0.158714,0.089995,0.133451,0.215695
0.151651,0.263084,0.018721,0.030996,0.158687,0.089337,0.126464,0.208727
0.146471,0.258247,0.018124,0.030167,0.159543,0.089123,0.120355,0.199905
0.143592,0.253740,0.017779,0.030093,0.161191,0.089232,0.117018,0.194950
0.134707,0.242439,0.015626,0.029366,0.171642,0.090429,0.104967,0.178924
0.127594,0.233797,0.013787,0.029084,0.175925,0.090839,0.094524,0.168605
0.118384,0.225141,0.011729,0.029249,0.185155,0.093467,0.067732,0.146982
0.117309,0.225151,0.011247,0.029455,0.188039,0.094071,0.063327,0.143012
0.116464,0.226457,0.010448,0.029628,0.189267,0.094441,0.059708,0.139481
0.114785,0.226881,0.009200,0.029279,0.192463,0.093947,0.053828,0.132206
0.114568,0.226625,0.008716,0.029249,0.194800,0.093616,0.051505,0.129205
0.115628,0.226993,0.008306,0.029223,0.196779,0.093414,0.049605,0.126666
0.116824,0.227304,0.007958,0.029201,0.199492,0.093227,0.047797,0.124352
0.116953,0.225283,0.007775,0.029185,0.203196,0.093242,0.043314,0.120202
0.115135,0.222547,0.007704,0.029406,0.204741,0.093247,0.041575,0.118178
0.112053,0.220671,0.007593,0.030950,0.207937,0.093050,0.038557,0.114410
0.111132,0.221047,0.007855,0.032540,0.209297,0.092528,0.037165,0.112618
0.110556,0.221049,0.009009,0.035023,0.211305,0.091719,0.033951,0.108357
0.110003,0.221722,0.010109,0.037125,0.212776,0.089767,0.030950,0.101019
0.109728,0.221701,0.010459,0.038098,0.213434,0.087780,0.029387,0.096395
0.110055,0.218774,0.010983,0.039125,0.213312,0.084878,0.026945,0.088990
0.110330,0.217029,0.011969,0.039573,0.212874,0.083788,0.025276,0.082819
0.110345,0.216533,0.012471,0.040028,0.212933,0.083751,0.024647,0.079664
0.111964,0.215416,0.013998,0.042021,0.213118,0.084180,0.023537,0.075130
0.116262,0.214992,0.016014,0.044058,0.212927,0.084127,0.022755,0.072376
0.120737,0.215293,0.017598,0.046629,0.214087,0.084804,0.022847,0.072000
0.139482,0.224003,0.021908,0.055154,0.223629,0.083887,0.021778,0.067922
0.143070,0.224039,0.022651,0.057768,0.225643,0.084150,0.021510,0.065120
0.149081,0.221736,0.023811,0.063070,0.229034,0.084829,0.021251,0.059935
0.160200,0.225963,0.026685,0.067186,0.230924,0.086167,0.021074,0.056099
0.164729,0.229016,0.027870,0.068783,0.229807,0.086496,0.021156,0.054599
0.174094,0.233159,0.029723,0.078479,0.234883,0.087382,0.021710,0.052762
0.178826,0.236012,0.030822,0.084429,0.238576,0.088337,0.022283,0.052609
0.182705,0.237535,0.031644,0.088968,0.242318,0.089154,0.022768,0.052479
0.187225,0.240038,0.032340,0.093873,0.243779,0.090287,0.023454,0.052733
0.192210,0.242231,0.033203,0.098563,0.243647,0.090482,0.024052,0.053057
0.216129,0.256580,0.038184,0.115851,0.243088,0.090895,0.027084,0.053566
0.219845,0.260058,0.039278,0.118795,0.243270,0.090164,0.027645,0.053621
0.223504,0.264926,0.040204,0.121287,0.242750,0.089554,0.027901,0.053777
0.230059,0.274215,0.041672,0.125998,0.241935,0.088602,0.028085,0.052785
0.239692,0.282445,0.042851,0.130282,0.241545,0.087628,0.027931,0.052143
0.244005,0.286743,0.043224,0.131900,0.239364,0.086999,0.027872,0.051858
0.249793,0.292293,0.044490,0.135258,0.235537,0.086195,0.027995,0.051320
0.252827,0.295369,0.045439,0.137641,0.236034,0.087419,0.028333,0.051093
0.254330,0.297625,0.046383,0.139506,0.231618,0.089978,0.028461,0.047890
0.253723,0.298033,0.046402,0.139630,0.229440,0.091189,0.028334,0.047694
0.252482,0.298371,0.046431,0.139825,0.225286,0.093337,0.028057,0.048497
0.251198,0.300283,0.046452,0.140331,0.221435,0.096101,0.028101,0.049316
0.250462,0.301267,0.046460,0.140730,0.219774,0.098085,0.028172,0.049681
0.247877,0.301497,0.046467,0.141067,0.218388,0.099303,0.028298,0.049991
0.243377,0.301218,0.046847,0.141594,0.216642,0.101970,0.028377,0.051612
0.240870,0.302191,0.047020,0.141424,0.215204,0.104075,0.029916,0.055537
0.239297,0.301965,0.047087,0.140880,0.214328,0.105927,0.031227,0.057385
0.231271,0.297251,0.045789,0.136401,0.207041,0.112042,0.036691,0.062569
0.230220,0.298650,0.045739,0.135510,0.204792,0.112841,0.037572,0.064093
0.232947,0.301280,0.046042,0.133492,0.202264,0.113900,0.042817,0.067151
0.238170,0.304420,0.046259,0.132020,0.200871,0.113724,0.048578,0.071581
0.241587,0.309151,0.046144,0.131465,0.200201,0.113492,0.050914,0.074924
0.249105,0.315369,0.045875,0.130264,0.197955,0.111751,0.055351,0.086160
0.253234,0.320334,0.046415,0.129340,0.196934,0.111049,0.059053,0.092603
0.254889,0.339748,0.043231,0.118310,0.193282,0.106746,0.072676,0.114632
0.249899,0.339190,0.041552,0.112237,0.185386,0.104807,0.080622,0.120181
0.249385,0.339925,0.040900,0.108831,0.180448,0.103384,0.083702,0.123170
0.247744,0.343490,0.039800,0.103725,0.174382,0.101087,0.090034,0.129251
0.245529,0.355070,0.037989,0.099087,0.169856,0.098544,0.097554,0.136754
0.242509,0.357464,0.036663,0.097288,0.168010,0.097395,0.102942,0.143571
0.238366,0.364000,0.034981,0.091398,0.160370,0.096376,0.114264,0.154842
0.233015,0.375035,0.034473,0.075548,0.139292,0.095358,0.127940,0.170503
0.230949,0.376544,0.034546,0.070427,0.133429,0.094790,0.131997,0.174473
0.227779,0.380646,0.034618,0.061429,0.124642,0.094234,0.141026,0.182589
0.230106,0.384271,0.034204,0.054699,0.117175,0.093641,0.150377,0.191551
0.230104,0.384342,0.033370,0.050897,0.113425,0.093182,0.153764,0.194316
0.229705,0.383856,0.031766,0.044412,0.108344,0.092465,0.159040,0.198892
0.228684,0.376449,0.030907,0.039629,0.105332,0.092038,0.162805,0.202790
0.228528,0.373023,0.030439,0.036916,0.103623,0.091811,0.164313,0.204702
0.225910,0.373892,0.029645,0.032208,0.099197,0.091041,0.169092,0.208211
0.222222,0.374722,0.028171,0.026520,0.091569,0.089935,0.175643,0.218478
0.223526,0.376496,0.028114,0.023340,0.084646,0.087477,0.180750,0.226778
0.229100,0.380717,0.028302,0.022080,0.082747,0.086444,0.184246,0.232534
0.240685,0.387665,0.028691,0.020288,0.080712,0.081517,0.190260,0.244181
0.254854,0.391198,0.029131,0.018505,0.076861,0.073636,0.196808,0.252814
0.264373,0.388318,0.029398,0.016970,0.074325,0.066015,0.200260,0.257489
0.266459,0.387489,0.029461,0.016612,0.074130,0.064099,0.200955,0.258566
0.269106,0.385281,0.029049,0.016935,0.074459,0.060319,0.202010,0.259921
0.270644,0.379988,0.028734,0.017594,0.076751,0.058173,0.201430,0.259550
0.272966,0.378734,0.028710,0.017587,0.078002,0.056743,0.200722,0.258886
0.278200,0.376437,0.028654,0.017414,0.079958,0.054322,0.198592,0.257876
0.280118,0.377120,0.028657,0.017232,0.083545,0.053525,0.196869,0.256342
0.280153,0.375156,0.028127,0.017162,0.084926,0.053378,0.196243,0.255100
0.276974,0.371786,0.026918,0.017120,0.086915,0.053111,0.192039,0.252715
0.272569,0.364363,0.025715,0.017367,0.091303,0.052822,0.186661,0.248438
0.271506,0.359489,0.024795,0.017410,0.093919,0.053276,0.188555,0.241109
0.268502,0.359547,0.022603,0.017202,0.098171,0.056266,0.190203,0.228679
0.268451,0.363372,0.022422,0.017141,0.099706,0.057227,0.190218,0.225461
0.266758,0.369316,0.022233,0.017930,0.102276,0.058734,0.189453,0.220270
0.267216,0.375308,0.022182,0.018689,0.112266,0.061374,0.184496,0.215533
0.266944,0.376998,0.022165,0.018826,0.116963,0.062639,0.182369,0.212584
0.266086,0.371372,0.022373,0.017549,0.125787,0.066019,0.170771,0.199380
0.265776,0.371521,0.022686,0.017611,0.127654,0.066888,0.166056,0.192863
0.263735,0.370019,0.022917,0.017494,0.130909,0.066979,0.155574,0.183927
0.262890,0.366151,0.022817,0.017444,0.133336,0.067240,0.151924,0.180223
0.261025,0.362859,0.022093,0.017654,0.134432,0.067435,0.148349,0.175656
0.256625,0.358347,0.020594,0.018071,0.137513,0.066977,0.140630,0.167094
0.249380,0.354431,0.019039,0.018538,0.140518,0.066067,0.132482,0.159168
0.243723,0.351263,0.018482,0.018718,0.142436,0.065618,0.129066,0.155828
0.234698,0.346845,0.017574,0.019143,0.145186,0.064702,0.123611,0.151776
0.227658,0.345670,0.016893,0.019567,0.146729,0.064668,0.119981,0.151190
0.224534,0.345520,0.016629,0.019731,0.148440,0.065257,0.121601,0.151435
0.218910,0.347305,0.015787,0.019989,0.151798,0.067447,0.125358,0.150976
0.211202,0.342083,0.014892,0.020244,0.156477,0.071188,0.126103,0.146912
0.209662,0.342639,0.014703,0.020842,0.158032,0.072001,0.125638,0.144791
0.209635,0.345758,0.014212,0.021784,0.161780,0.074283,0.124020,0.142121
0.207710,0.343722,0.013473,0.022686,0.164078,0.075278,0.122188,0.138982
0.202363,0.339347,0.012848,0.023816,0.165336,0.076665,0.119843,0.134756
0.191107,0.331565,0.011775,0.026408,0.166717,0.078939,0.115995,0.126420
0.182070,0.327879,0.010968,0.028778,0.168805,0.080105,0.114917,0.122751
0.174632,0.325604,0.010390,0.030477,0.169754,0.080753,0.114710,0.121512
0.169293,0.333777,0.010551,0.031527,0.169983,0.081356,0.114400,0.120323
0.168704,0.337612,0.010614,0.031971,0.169672,0.081429,0.114702,0.120149
0.168253,0.343080,0.010555,0.031732,0.168070,0.080846,0.115064,0.119159
0.167787,0.349187,0.010315,0.031530,0.171274,0.079392,0.114765,0.117835
0.167948,0.351249,0.010338,0.031845,0.172444,0.079030,0.114838,0.117655
0.169257,0.355591,0.010334,0.032336,0.174774,0.077695,0.116233,0.117872
0.169521,0.356675,0.010333,0.032527,0.176658,0.077385,0.117468,0.118739
0.169267,0.357436,0.010333,0.032688,0.178430,0.077336,0.118446,0.119513
0.167082,0.359187,0.010331,0.032762,0.178917,0.077348,0.118990,0.122388
0.161203,0.362134,0.010415,0.033576,0.180279,0.077442,0.119673,0.122982
0.152405,0.364592,0.011043,0.034781,0.182864,0.076426,0.115998,0.123233
0.152000,0.355726,0.010785,0.035601,0.182483,0.073914,0.110441,0.124498
0.152324,0.353776,0.010642,0.035716,0.182405,0.073064,0.109093,0.125382
0.152598,0.352145,0.010428,0.035583,0.182168,0.072483,0.107837,0.126448
0.151763,0.346822,0.009952,0.035294,0.171308,0.070077,0.105270,0.129285
0.150876,0.343921,0.009838,0.035225,0.168195,0.070290,0.105034,0.130065
0.149600,0.342306,0.009932,0.035815,0.164191,0.070967,0.104665,0.131587
0.148288,0.326910,0.010188,0.036587,0.162806,0.070685,0.104040,0.132282
0.148254,0.320900,0.010105,0.037187,0.161037,0.070003,0.102936,0.130922
0.148698,0.324172,0.010046,0.036995,0.159555,0.068654,0.101232,0.129974
0.148906,0.329050,0.010003,0.036360,0.160941,0.068460,0.101960,0.130716
0.149544,0.330551,0.009987,0.036113,0.161553,0.068361,0.102642,0.131483
0.150047,0.335373,0.010022,0.036062,0.161397,0.068295,0.101919,0.130732
0.150473,0.340485,0.010051,0.036187,0.161600,0.068239,0.101096,0.130385
0.150108,0.345672,0.010097,0.036420,0.162414,0.067504,0.099680,0.127116
0.150552,0.347219,0.010130,0.036586,0.161599,0.066967,0.095744,0.122971
0.151802,0.347507,0.010094,0.036651,0.160857,0.066343,0.092275,0.121222
0.152990,0.348146,0.010063,0.036706,0.159839,0.065127,0.089219,0.119527
0.154050,0.355410,0.010135,0.036825,0.157834,0.062233,0.082068,0.118062
0.153126,0.362111,0.010534,0.035881,0.159521,0.060816,0.079762,0.115523
0.160940,0.373846,0.010931,0.033580,0.160645,0.057578,0.078044,0.111730
0.164399,0.378645,0.011025,0.032585,0.161781,0.056529,0.077389,0.110938
0.170715,0.384711,0.011566,0.031092,0.162620,0.055461,0.075832,0.109228
0.177204,0.390866,0.012103,0.029607,0.166256,0.056832,0.072932,0.102584
0.178924,0.395145,0.012008,0.029256,0.166811,0.057199,0.073046,0.101139
0.179613,0.398309,0.011694,0.028707,0.167367,0.057732,0.073250,0.099399
0.181873,0.400084,0.011381,0.026920,0.163423,0.058659,0.072577,0.096367
0.183127,0.403571,0.011822,0.026868,0.157911,0.059209,0.072588,0.095091
0.181971,0.407247,0.012402,0.027041,0.153077,0.060547,0.072434,0.094230
0.181080,0.409044,0.012616,0.026973,0.149812,0.061002,0.072096,0.093820
0.180096,0.411700,0.012949,0.027258,0.143064,0.061214,0.069552,0.092189
0.180140,0.414285,0.013264,0.027484,0.136798,0.060657,0.067439,0.091281
0.180338,0.415004,0.013386,0.027572,0.134367,0.060318,0.066620,0.090654
0.182434,0.414853,0.013885,0.026814,0.129781,0.060125,0.064052,0.089978
0.183214,0.415930,0.013869,0.026324,0.129464,0.059862,0.061528,0.089553
0.183368,0.417370,0.013856,0.025910,0.129064,0.059822,0.059389,0.088624
0.183059,0.412978,0.013643,0.024916,0.133041,0.061871,0.053162,0.084505
0.183647,0.409534,0.013508,0.024615,0.133441,0.062569,0.052334,0.082901
0.184325,0.406626,0.013393,0.024360,0.133780,0.062988,0.051634,0.081350
0.184016,0.403344,0.013297,0.024144,0.133448,0.063066,0.051035,0.079856
0.184184,0.402988,0.013145,0.023807,0.133977,0.063279,0.050828,0.077920
0.186372,0.413007,0.012868,0.023566,0.135319,0.062376,0.052026,0.076716
0.188497,0.421408,0.012076,0.021996,0.134814,0.061847,0.052910,0.075913
0.187938,0.429903,0.010972,0.020747,0.136190,0.063172,0.053304,0.074147
0.189475,0.426926,0.010490,0.023252,0.139698,0.065133,0.053413,0.073773
0.191655,0.424721,0.010303,0.024224,0.140228,0.065893,0.053300,0.073838
0.195247,0.425223,0.010070,0.025988,0.140215,0.066261,0.050588,0.072841
0.195708,0.425337,0.009809,0.027472,0.143063,0.066214,0.047855,0.074303
0.195791,0.424252,0.009665,0.027807,0.144343,0.066219,0.046812,0.076010
0.197154,0.422217,0.010167,0.028090,0.145863,0.066817,0.045850,0.079289
0.201026,0.421797,0.010527,0.028340,0.146706,0.067015,0.044659,0.083066
0.205216,0.428612,0.010857,0.028520,0.147144,0.068288,0.043770,0.086453
0.209548,0.430439,0.011000,0.029056,0.149012,0.070771,0.043395,0.088502
0.211392,0.428723,0.011012,0.029415,0.149316,0.072202,0.043257,0.090131
0.212981,0.425360,0.010827,0.029720,0.148566,0.073454,0.042534,0.091660
0.206146,0.421185,0.010330,0.030632,0.153088,0.076812,0.043732,0.098104
0.202458,0.419476,0.010250,0.030664,0.153125,0.077272,0.043968,0.100653
0.195773,0.416766,0.010223,0.029999,0.155341,0.078870,0.044184,0.106878
0.193876,0.416100,0.010766,0.029809,0.155908,0.079410,0.044151,0.110789
0.191865,0.415378,0.011537,0.029648,0.156101,0.079439,0.044076,0.115845
0.190860,0.413547,0.012458,0.029512,0.156491,0.079850,0.043636,0.120934
0.193113,0.412756,0.014049,0.029299,0.157101,0.082348,0.042313,0.130131
0.198672,0.419849,0.017590,0.029425,0.160465,0.084536,0.041385,0.141201
0.199743,0.424382,0.018506,0.029455,0.161231,0.084950,0.041112,0.144333
0.200813,0.425883,0.019138,0.029480,0.161426,0.085477,0.040912,0.148118
0.200841,0.427088,0.019600,0.027763,0.162413,0.086464,0.040431,0.162223
0.209681,0.423961,0.019682,0.026803,0.164212,0.086444,0.040410,0.178451
0.217198,0.422786,0.019903,0.026330,0.164910,0.086745,0.040887,0.185369
0.230942,0.424233,0.020333,0.025590,0.166571,0.087808,0.041902,0.202730
0.247545,0.431213,0.020563,0.025566,0.170650,0.089301,0.043653,0.216680
0.256276,0.434148,0.020554,0.025789,0.172152,0.089608,0.044662,0.224512
0.277731,0.436255,0.021266,0.026458,0.173583,0.091123,0.048013,0.242757
0.289318,0.436239,0.021973,0.026888,0.173516,0.091996,0.049503,0.250099
0.320454,0.441014,0.023615,0.027616,0.171466,0.092730,0.053702,0.270601
0.363196,0.457136,0.025200,0.027880,0.171057,0.094356,0.058545,0.310398
0.395909,0.454054,0.026107,0.028130,0.168162,0.094202,0.058048,0.347810
0.413494,0.452946,0.026846,0.028343,0.167410,0.093731,0.059041,0.372195
0.434008,0.452616,0.027467,0.028571,0.168049,0.094663,0.061815,0.396592
0.445704,0.452753,0.027981,0.028066,0.168316,0.094848,0.062982,0.407850
0.483488,0.462871,0.029431,0.022696,0.171347,0.100246,0.070002,0.450389
0.494049,0.463540,0.029821,0.021665,0.171635,0.101945,0.072638,0.462624
0.505621,0.462842,0.030152,0.020702,0.170541,0.103702,0.075380,0.474161
0.540142,0.465835,0.031070,0.018610,0.166972,0.109131,0.081197,0.502771
0.552580,0.469478,0.031660,0.018058,0.166581,0.110455,0.082654,0.509365
0.607602,0.477339,0.041898,0.018284,0.170381,0.113871,0.095375,0.552338
0.618470,0.478250,0.045098,0.018959,0.171406,0.114235,0.098666,0.561745
0.629799,0.479655,0.048652,0.019531,0.172274,0.114502,0.102055,0.569556
0.653320,0.482474,0.056529,0.020404,0.173249,0.114467,0.109095,0.583903
0.690009,0.488390,0.065379,0.021217,0.169356,0.114981,0.116200,0.597100
0.702135,0.489999,0.067799,0.021391,0.168958,0.115388,0.118035,0.600169
0.728118,0.493654,0.071089,0.021478,0.167609,0.115544,0.122123,0.612392
0.752811,0.497755,0.073179,0.022117,0.166709,0.116537,0.126755,0.627295
0.765155,0.498437,0.073579,0.022365,0.166197,0.117138,0.129821,0.634163
0.787429,0.499723,0.075612,0.022753,0.167950,0.116784,0.136650,0.649337
0.804916,0.500556,0.076391,0.023332,0.172930,0.116918,0.142588,0.661924
0.813814,0.500702,0.077341,0.023966,0.177171,0.118092,0.146587,0.669911
0.831434,0.500440,0.079225,0.024958,0.184402,0.122387,0.154299,0.686771
0.850361,0.502404,0.080993,0.025631,0.189547,0.124198,0.161444,0.703507
0.859344,0.503438,0.081717,0.025875,0.192212,0.124781,0.165259,0.707913
0.866726,0.505635,0.082330,0.026082,0.194161,0.125504,0.168633,0.709508
0.868497,0.510713,0.083098,0.026758,0.198765,0.127621,0.173800,0.707979
0.868616,0.513373,0.083309,0.027337,0.202018,0.129294,0.175887,0.704382
0.865313,0.511234,0.083555,0.028244,0.207320,0.131489,0.178468,0.695614
0.851527,0.505821,0.084095,0.028527,0.209109,0.134047,0.178608,0.677650
0.835104,0.505839,0.083390,0.028117,0.207400,0.134529,0.177086,0.664099
0.818942,0.507476,0.082679,0.028014,0.205726,0.134886,0.175118,0.652324
0.810676,0.506501,0.082293,0.027974,0.204500,0.134523,0.173951,0.645415
0.791981,0.507520,0.081689,0.027911,0.202523,0.134595,0.172580,0.627254
0.770862,0.512515,0.081305,0.027797,0.201442,0.134552,0.171975,0.607893
0.759830,0.515309,0.081474,0.027775,0.201229,0.135754,0.171788,0.596372
0.748106,0.515920,0.081617,0.027756,0.201517,0.137339,0.171172,0.584390
0.719607,0.524146,0.082682,0.027383,0.203002,0.143088,0.169449,0.549121
0.710434,0.529076,0.083253,0.027177,0.204475,0.144196,0.167845,0.537994
0.699860,0.535505,0.084117,0.027002,0.205076,0.144351,0.166456,0.525808
0.660919,0.556408,0.087987,0.026484,0.205057,0.143556,0.159543,0.484671
0.639745,0.560122,0.089509,0.026212,0.205658,0.143371,0.155214,0.461731
0.627657,0.564026,0.090103,0.026080,0.206008,0.143678,0.152629,0.449412
0.604565,0.571517,0.091311,0.026391,0.209177,0.143825,0.148718,0.425805
0.581634,0.577861,0.092272,0.027051,0.212200,0.145699,0.145742,0.410217
0.569806,0.582291,0.092732,0.027307,0.212639,0.147022,0.143995,0.401928
0.559578,0.586043,0.092055,0.027524,0.213913,0.148325,0.141949,0.395197
0.541458,0.595192,0.088756,0.026959,0.215648,0.149945,0.138060,0.376877
0.525660,0.597949,0.082625,0.024952,0.213786,0.150486,0.134064,0.356166
0.516137,0.600840,0.079399,0.024023,0.212881,0.150137,0.131959,0.347915
0.484077,0.603030,0.069189,0.022008,0.209669,0.151007,0.124648,0.328226
0.473740,0.599518,0.066238,0.021531,0.209029,0.151095,0.122196,0.326173
0.454782,0.602161,0.061439,0.020838,0.207335,0.150731,0.118365,0.320769
0.433087,0.612596,0.057858,0.020103,0.206212,0.151232,0.114909,0.306155
0.422781,0.618605,0.055891,0.019437,0.204983,0.151352,0.112935,0.296143
0.402228,0.629619,0.052818,0.018418,0.203282,0.150746,0.107654,0.273722
0.390886,0.631625,0.051565,0.018032,0.201787,0.150740,0.104020,0.261591
0.378833,0.632327,0.049912,0.018049,0.199917,0.150804,0.100896,0.250608
0.347166,0.628402,0.045532,0.018152,0.187951,0.150993,0.090697,0.221374
0.325237,0.622355,0.042545,0.017809,0.181523,0.148549,0.083069,0.199161
0.313839,0.618547,0.041288,0.017709,0.180748,0.147881,0.079634,0.186878
0.292107,0.610775,0.039174,0.017525,0.177955,0.149070,0.071916,0.164867
0.273503,0.607813,0.037912,0.017194,0.174917,0.149516,0.066562,0.148710
0.265941,0.610463,0.037464,0.016974,0.172311,0.149056,0.064292,0.142256
0.251872,0.614459,0.037141,0.016310,0.168177,0.148564,0.060557,0.131679
0.235143,0.623304,0.036725,0.016183,0.161855,0.147951,0.056838,0.120565
0.231212,0.626633,0.036407,0.016184,0.159413,0.147860,0.055949,0.117714
0.223887,0.630320,0.036042,0.016185,0.155652,0.147280,0.054501,0.112846
0.217396,0.633164,0.035980,0.016698,0.157156,0.146479,0.053452,0.109196
0.214372,0.634983,0.036119,0.016897,0.158015,0.146327,0.052985,0.108278
0.209361,0.620742,0.036184,0.017821,0.163683,0.143018,0.049839,0.114306
0.208922,0.616102,0.035940,0.017952,0.164392,0.141025,0.049439,0.115703
0.208211,0.613638,0.035774,0.018064,0.164916,0.138983,0.048708,0.116581
0.207609,0.611867,0.035496,0.018158,0.165854,0.136795,0.047777,0.117674
0.207418,0.610155,0.034633,0.018238,0.165035,0.135123,0.047027,0.118816
0.206900,0.605998,0.033902,0.018306,0.163558,0.133567,0.046469,0.119783
0.205610,0.593564,0.031823,0.018775,0.162598,0.130273,0.045560,0.121110
0.201233,0.576052,0.030153,0.019458,0.163732,0.126008,0.045051,0.123836
0.199809,0.563558,0.028910,0.019734,0.162133,0.124866,0.045082,0.125943
0.199428,0.555699,0.028349,0.019842,0.161004,0.124070,0.045011,0.126872
0.198604,0.539909,0.026814,0.019493,0.157357,0.123353,0.044734,0.131859
0.196175,0.519353,0.024921,0.018805,0.156666,0.122363,0.045457,0.136461
0.194509,0.509981,0.024239,0.018538,0.157542,0.121726,0.045925,0.140621
0.187512,0.493297,0.024918,0.018121,0.158335,0.120587,0.046834,0.155528
0.179233,0.480853,0.028015,0.017780,0.157349,0.119270,0.045800,0.174123
0.170887,0.470703,0.033651,0.017487,0.158101,0.117907,0.044862,0.194537
0.173667,0.473678,0.037909,0.017466,0.157344,0.117025,0.045620,0.208185
0.179367,0.470948,0.043984,0.017344,0.159386,0.121883,0.048824,0.226978
0.181128,0.464566,0.045016,0.017302,0.160763,0.124589,0.051459,0.234129
0.185564,0.446357,0.048118,0.017191,0.163888,0.131002,0.062370,0.256164
0.186180,0.442645,0.049295,0.017152,0.165428,0.133118,0.065842,0.263983
0.187527,0.437003,0.051899,0.016065,0.167944,0.141484,0.076813,0.278631
0.188757,0.433886,0.055266,0.015218,0.168222,0.149703,0.086739,0.292325
0.191191,0.433729,0.056800,0.015063,0.167908,0.153331,0.091747,0.301200
0.196069,0.435575,0.060227,0.014687,0.166540,0.163209,0.105740,0.316149
0.199819,0.438961,0.062839,0.014497,0.164544,0.173867,0.123806,0.333659
0.201493,0.442115,0.065639,0.014643,0.164707,0.179489,0.131741,0.342323
0.207572,0.440660,0.074018,0.014872,0.165072,0.188424,0.147248,0.357806
0.215296,0.434889,0.082718,0.014756,0.166919,0.196332,0.161678,0.375161
0.220042,0.432441,0.086848,0.014583,0.167408,0.200488,0.168687,0.385196
0.228405,0.427675,0.093302,0.013678,0.170845,0.210583,0.184227,0.404787
0.237185,0.423683,0.099038,0.013114,0.174881,0.222398,0.202707,0.423123
0.241740,0.421915,0.101875,0.012895,0.176631,0.227592,0.212585,0.432587
0.250112,0.420964,0.108799,0.011820,0.175820,0.240177,0.235078,0.449363
0.256302,0.416283,0.113878,0.011301,0.176156,0.252384,0.257568,0.466924
0.258439,0.414680,0.115892,0.011100,0.176189,0.259143,0.269175,0.473662
0.268108,0.413974,0.122065,0.010625,0.176702,0.270500,0.288983,0.486771
0.287137,0.414435,0.132682,0.010218,0.181946,0.293267,0.325476,0.521469
0.294905,0.414538,0.138716,0.010130,0.186105,0.303395,0.342906,0.542704
0.307910,0.414880,0.145045,0.009706,0.184078,0.313458,0.366809,0.565025
0.313823,0.412528,0.147575,0.009375,0.183113,0.317891,0.377603,0.575429
0.325347,0.412610,0.157592,0.010141,0.181059,0.327075,0.394579,0.594413
0.336551,0.413926,0.168386,0.010985,0.180877,0.336414,0.407174,0.611152
0.341724,0.417751,0.175377,0.011313,0.181243,0.339731,0.412108,0.618910
0.351704,0.423029,0.189189,0.011825,0.181917,0.345128,0.421723,0.629508
0.361162,0.431608,0.201663,0.012192,0.179020,0.354212,0.435951,0.638971
0.365697,0.438067,0.209923,0.012424,0.177524,0.358302,0.441613,0.641165
0.384501,0.462122,0.228245,0.013580,0.174657,0.373496,0.458451,0.631632
0.388564,0.466568,0.230829,0.013972,0.174156,0.377550,0.464965,0.631536
0.393524,0.468455,0.234136,0.014960,0.177982,0.385499,0.482190,0.631677
0.395316,0.461864,0.236383,0.015959,0.184337,0.391410,0.495780,0.627162
0.394288,0.456588,0.237148,0.016517,0.187801,0.395625,0.501599,0.624736
0.393854,0.447578,0.238505,0.017389,0.195426,0.403738,0.510954,0.623680
0.390787,0.440430,0.240079,0.018256,0.198375,0.402476,0.513556,0.618104
0.391093,0.437065,0.242324,0.019171,0.206050,0.397335,0.507105,0.607862
0.392572,0.438674,0.242382,0.019409,0.208271,0.392855,0.503211,0.606395
0.393784,0.440134,0.242238,0.019752,0.212046,0.389121,0.499752,0.604593
0.394470,0.442966,0.241950,0.020329,0.218573,0.384558,0.496824,0.600092
0.393027,0.446414,0.242036,0.020840,0.223779,0.380389,0.493030,0.593785
0.392018,0.450330,0.241507,0.021273,0.229339,0.377266,0.487871,0.588485
0.388504,0.459434,0.241207,0.022406,0.247285,0.364236,0.465245,0.568906
0.383378,0.459463,0.236052,0.022515,0.255942,0.354660,0.449738,0.556705
0.381347,0.463190,0.233198,0.022955,0.259718,0.351111,0.443097,0.551371
0.377259,0.468193,0.226916,0.023642,0.263148,0.342778,0.429767,0.538021
0.371424,0.475006,0.220950,0.024135,0.263641,0.333628,0.416670,0.521896
0.370191,0.477293,0.218793,0.024226,0.263169,0.328947,0.409864,0.512495
0.368628,0.481885,0.216118,0.024523,0.262754,0.318474,0.393648,0.496367
0.369371,0.487939,0.215400,0.026769,0.263348,0.308644,0.376295,0.479927
0.369526,0.490589,0.214958,0.027823,0.262967,0.303378,0.366848,0.472558
0.371343,0.495967,0.215274,0.028593,0.262771,0.297862,0.357695,0.463441
0.373298,0.506328,0.215923,0.029828,0.264503,0.288352,0.336135,0.446329
0.371646,0.512263,0.214610,0.030321,0.266229,0.284708,0.326883,0.438816
0.367231,0.524015,0.212993,0.030877,0.268759,0.276722,0.309370,0.420829
0.365487,0.534822,0.211777,0.031523,0.269657,0.268468,0.292852,0.405258
0.364107,0.544372,0.209048,0.032157,0.266573,0.261692,0.282284,0.390493
0.363518,0.557769,0.206530,0.032589,0.267985,0.255731,0.268246,0.373790
0.363432,0.564166,0.204972,0.032804,0.272497,0.253521,0.261452,0.367912
0.362928,0.574700,0.200115,0.032634,0.280163,0.248792,0.250804,0.355191
0.359213,0.583223,0.192908,0.031845,0.285844,0.241616,0.243728,0.344164
0.356382,0.589916,0.189284,0.031555,0.288197,0.238411,0.241203,0.338185
0.352354,0.600402,0.178740,0.031397,0.293288,0.234182,0.238895,0.327718
0.349588,0.610328,0.169176,0.032392,0.297964,0.228187,0.233348,0.316697
0.347806,0.615451,0.164644,0.033246,0.300280,0.223771,0.229167,0.310555
0.342433,0.621933,0.151154,0.034659,0.302768,0.215817,0.221784,0.299170
0.330346,0.635870,0.134067,0.035789,0.305552,0.202861,0.207738,0.279756
0.325424,0.641764,0.127739,0.035448,0.303332,0.195763,0.190592,0.268788
0.318496,0.646098,0.122211,0.034832,0.298130,0.191265,0.175064,0.259520
0.317600,0.647212,0.119969,0.034423,0.294876,0.187355,0.168246,0.255196
0.313732,0.649502,0.116188,0.033783,0.289452,0.178333,0.156770,0.242459
0.309602,0.652721,0.115218,0.033441,0.288009,0.171484,0.147765,0.230772
0.307576,0.656251,0.116777,0.033309,0.287124,0.168203,0.144361,0.225671
0.301115,0.672168,0.120068,0.033621,0.279535,0.158557,0.129585,0.192854
0.301658,0.662638,0.119743,0.032516,0.267833,0.160458,0.126585,0.185076
0.302448,0.658962,0.119460,0.032221,0.263103,0.158970,0.125991,0.183627
0.305166,0.654419,0.118718,0.031608,0.254122,0.156226,0.124638,0.180655
0.306854,0.658387,0.118752,0.031168,0.246536,0.154111,0.123062,0.178096
0.306845,0.658518,0.118168,0.030600,0.243204,0.153088,0.122227,0.176122
0.306191,0.658473,0.117000,0.029887,0.237682,0.150961,0.120362,0.173299
0.306718,0.659612,0.116051,0.029376,0.235159,0.149076,0.118667,0.171304
0.305006,0.660980,0.115525,0.029273,0.235993,0.148379,0.117425,0.171024
0.300687,0.661439,0.113640,0.028956,0.235984,0.147111,0.115551,0.170862
0.291485,0.657781,0.109843,0.026696,0.237318,0.145832,0.111952,0.170940
0.286800,0.654699,0.107738,0.025717,0.238816,0.146237,0.110366,0.170974
0.276601,0.647503,0.103063,0.024186,0.239442,0.145309,0.107833,0.171528
0.266938,0.639627,0.099279,0.023133,0.236930,0.143554,0.106645,0.171294
0.257241,0.633814,0.096013,0.022454,0.233631,0.141801,0.104575,0.169605
0.247123,0.624555,0.091870,0.021751,0.231487,0.141145,0.103373,0.164902
0.233449,0.605865,0.087174,0.020830,0.227217,0.137972,0.095956,0.156271
0.219559,0.593205,0.083193,0.020444,0.219188,0.135512,0.088627,0.150758
0.207118,0.585424,0.080098,0.020181,0.206673,0.133670,0.080603,0.145261
0.202489,0.585086,0.077720,0.019879,0.202403,0.132959,0.077497,0.142969
0.195013,0.581092,0.073364,0.019445,0.193201,0.130606,0.070868,0.136596
0.192872,0.578864,0.071341,0.019325,0.188772,0.130138,0.068508,0.133332
0.191073,0.577578,0.070187,0.018929,0.185043,0.129628,0.065151,0.131477
0.189425,0.578317,0.069210,0.018322,0.181793,0.129922,0.061946,0.129240
0.186459,0.572601,0.066863,0.016787,0.178804,0.130095,0.058124,0.126102
0.185112,0.566907,0.065807,0.016646,0.177791,0.131071,0.056653,0.124457
0.182224,0.552543,0.064158,0.016149,0.177982,0.133108,0.054023,0.125019
0.181353,0.546717,0.063576,0.015957,0.178405,0.134371,0.052727,0.124248
0.182345,0.543299,0.062668,0.015794,0.178458,0.135891,0.051813,0.122945
0.182225,0.541361,0.061292,0.016909,0.181377,0.139180,0.050345,0.120973
0.188142,0.545639,0.060926,0.017396,0.184579,0.140013,0.050352,0.123203
0.189093,0.547157,0.060784,0.017585,0.186129,0.141648,0.051084,0.124623
0.194673,0.560792,0.060745,0.018550,0.191343,0.149650,0.053842,0.138077
0.198179,0.564669,0.059335,0.018740,0.190713,0.152206,0.056497,0.143180
0.200136,0.564403,0.056825,0.018901,0.190179,0.155539,0.058849,0.147496
0.204185,0.560956,0.052554,0.019170,0.189305,0.164515,0.064621,0.157433
0.205983,0.563811,0.047477,0.019126,0.184593,0.175401,0.070960,0.169418
0.210796,0.568295,0.045131,0.018727,0.180175,0.176992,0.073914,0.177295
0.215040,0.572784,0.045154,0.018656,0.179129,0.177062,0.074915,0.180676
0.218883,0.576672,0.045195,0.018617,0.177976,0.178503,0.076067,0.183495
0.223868,0.591276,0.045833,0.018440,0.178243,0.180870,0.078559,0.187940
0.232135,0.602887,0.046502,0.019104,0.178352,0.183820,0.083489,0.192076
0.235778,0.604236,0.047479,0.020319,0.177901,0.187456,0.085583,0.194643
0.241904,0.609047,0.049833,0.024111,0.182279,0.194421,0.092136,0.199920
0.250349,0.605992,0.052717,0.027358,0.185888,0.202339,0.098297,0.204103
0.254846,0.605062,0.053903,0.028646,0.186395,0.205154,0.100784,0.207331
0.271907,0.610631,0.059787,0.032119,0.187952,0.215084,0.106867,0.213799
0.277419,0.611309,0.060580,0.032980,0.188616,0.218036,0.108990,0.215517
0.285827,0.615627,0.062653,0.035029,0.188226,0.222458,0.112596,0.218147
0.293263,0.618925,0.064275,0.036990,0.189619,0.225896,0.115210,0.220608
0.296818,0.618342,0.064967,0.037651,0.190313,0.227612,0.116068,0.221243
0.300089,0.615985,0.065553,0.038210,0.190327,0.229567,0.116900,0.221743
0.302857,0.614229,0.066048,0.038684,0.190982,0.231321,0.117955,0.222485
0.310688,0.616780,0.068291,0.040125,0.199170,0.236981,0.119916,0.220804
0.317723,0.624218,0.069705,0.041188,0.205446,0.237725,0.119733,0.219089
0.324486,0.629538,0.070708,0.042052,0.213698,0.239300,0.119519,0.218077
0.330904,0.627904,0.071078,0.042830,0.222028,0.240789,0.119179,0.216620
0.336147,0.635662,0.073368,0.043409,0.231410,0.245045,0.118520,0.216106
0.335109,0.636118,0.073135,0.043517,0.235107,0.246104,0.117742,0.215390
0.332258,0.633995,0.072769,0.043770,0.241287,0.246935,0.116132,0.214278
0.333038,0.637772,0.072707,0.042752,0.242070,0.241888,0.113691,0.213058
0.333998,0.638384,0.072777,0.042443,0.242057,0.239867,0.113101,0.211787
0.332620,0.634941,0.072746,0.041978,0.244099,0.236066,0.112216,0.209450
0.330943,0.625124,0.072235,0.040671,0.243415,0.233825,0.112398,0.208154
0.331015,0.621600,0.072127,0.040202,0.240935,0.233087,0.112892,0.208354
0.325922,0.614125,0.073043,0.039596,0.239084,0.232109,0.113639,0.208131
0.321210,0.614034,0.076060,0.039415,0.235023,0.227684,0.114819,0.206369
0.317570,0.611991,0.079058,0.039549,0.231283,0.224603,0.116283,0.205949
0.310626,0.606177,0.086524,0.040335,0.226614,0.220277,0.117550,0.204606
0.308121,0.608552,0.092311,0.041458,0.227319,0.214875,0.118700,0.206004
0.305825,0.606187,0.094373,0.041821,0.228928,0.212349,0.118922,0.207121
0.301555,0.600835,0.099368,0.042157,0.230903,0.206799,0.119956,0.210262
0.299175,0.590276,0.103116,0.042371,0.234029,0.202751,0.121258,0.212699
0.288924,0.571520,0.106496,0.043695,0.234046,0.198281,0.123551,0.213205
0.282405,0.559801,0.108150,0.044595,0.232106,0.195745,0.127530,0.220820
0.280702,0.554766,0.108830,0.045183,0.231872,0.194896,0.130381,0.226688
0.273755,0.544075,0.109153,0.045611,0.231818,0.193216,0.135779,0.238525
0.268392,0.533697,0.106914,0.043631,0.229238,0.187877,0.142099,0.249353
0.260667,0.524439,0.104201,0.041015,0.226591,0.181100,0.146896,0.259518
0.257000,0.521996,0.103118,0.039874,0.225136,0.177979,0.149360,0.263783
0.250088,0.515364,0.099709,0.038270,0.225387,0.172436,0.156347,0.270723
0.245402,0.512411,0.097525,0.037862,0.226374,0.168122,0.159486,0.273243
0.240281,0.512549,0.094561,0.037189,0.226988,0.160070,0.164462,0.276881
0.234563,0.511137,0.091331,0.035348,0.229771,0.151565,0.169258,0.279259
0.231259,0.510964,0.090205,0.034244,0.231252,0.148796,0.171144,0.279910
0.229075,0.515117,0.089505,0.033499,0.234237,0.145426,0.171527,0.279368
0.228352,0.518404,0.089292,0.033232,0.233706,0.144100,0.171457,0.280486
0.229356,0.520870,0.088783,0.032678,0.232487,0.140325,0.171573,0.284055
0.227605,0.514515,0.087619,0.031981,0.230384,0.138897,0.171708,0.286995
0.226510,0.510816,0.087119,0.031550,0.229388,0.139566,0.171824,0.287374
0.222901,0.500684,0.086035,0.030496,0.220459,0.137882,0.173096,0.286944
0.223182,0.496325,0.085778,0.030194,0.217184,0.136713,0.173429,0.287101
0.224845,0.482372,0.084267,0.029722,0.211891,0.132151,0.174094,0.287001
0.228133,0.469288,0.082866,0.029784,0.208209,0.129377,0.174561,0.286368
0.230388,0.463777,0.082322,0.029809,0.206395,0.127880,0.174956,0.286822
0.234907,0.447197,0.080876,0.029381,0.206456,0.126931,0.176083,0.288309
0.234547,0.441131,0.080371,0.029135,0.207217,0.127339,0.177282,0.287932
0.235450,0.436752,0.079933,0.028927,0.207461,0.127781,0.178404,0.287028
0.236476,0.431393,0.079509,0.029195,0.207417,0.128195,0.179195,0.286627
0.246579,0.426354,0.078152,0.029837,0.210138,0.126551,0.179459,0.285606
0.255299,0.419140,0.076164,0.030220,0.212013,0.123898,0.177275,0.279924
0.258366,0.413071,0.075040,0.030304,0.213138,0.123032,0.176552,0.277226
0.262871,0.408423,0.072710,0.029880,0.214090,0.122277,0.173683,0.274630
0.273703,0.391486,0.061179,0.028160,0.216919,0.119745,0.166904,0.260424
0.274893,0.383692,0.057589,0.027277,0.216444,0.118461,0.165234,0.255747
0.277061,0.370328,0.051893,0.026559,0.211949,0.114068,0.162074,0.243860
0.278417,0.364668,0.048666,0.026881,0.209804,0.112214,0.160891,0.237746
0.281006,0.359852,0.045935,0.027153,0.207926,0.110338,0.159065,0.233747
0.284567,0.348232,0.037011,0.026968,0.206231,0.103048,0.153998,0.219269
0.285061,0.348847,0.034953,0.026504,0.206147,0.101710,0.153785,0.216370
0.288607,0.345993,0.030955,0.025777,0.206467,0.099262,0.152399,0.208803
0.290872,0.337908,0.028240,0.024815,0.207147,0.096997,0.148638,0.197970
0.295054,0.333984,0.027187,0.024094,0.207177,0.095626,0.146032,0.192642
0.296932,0.329392,0.026295,0.023483,0.207138,0.094118,0.142545,0.186566
0.302852,0.327468,0.025731,0.022173,0.204736,0.088493,0.124739,0.162644
0.302804,0.326596,0.025490,0.022092,0.202142,0.087293,0.120323,0.157058
0.300472,0.312797,0.025850,0.019982,0.196863,0.085772,0.104445,0.143207
0.304459,0.300504,0.026889,0.020595,0.193895,0.085131,0.102737,0.142079
0.309232,0.292051,0.027326,0.021377,0.193071,0.082597,0.108247,0.147854
0.313913,0.286667,0.027486,0.021680,0.191863,0.081420,0.110392,0.150525
0.324842,0.276229,0.027679,0.022318,0.189127,0.078974,0.114120,0.153053
0.337328,0.259070,0.027508,0.023200,0.185942,0.077056,0.118488,0.155126
0.340847,0.255190,0.027468,0.023384,0.183640,0.075649,0.120144,0.156520
0.344522,0.257030,0.028275,0.024426,0.181563,0.072553,0.125747,0.159605
0.351417,0.265922,0.032746,0.025473,0.179498,0.068973,0.135557,0.165931
0.356254,0.276081,0.035229,0.026271,0.179181,0.067533,0.143306,0.173740
0.363568,0.287357,0.037413,0.026799,0.177485,0.064389,0.149354,0.179571
0.366439,0.291547,0.038447,0.027575,0.176614,0.063028,0.151518,0.181402
0.372804,0.300990,0.040766,0.029692,0.174864,0.060793,0.155548,0.183593
0.378065,0.309667,0.042428,0.031819,0.169790,0.057729,0.157050,0.184914
0.380052,0.312345,0.043073,0.032783,0.167778,0.056795,0.158306,0.186070
0.383105,0.314265,0.043618,0.033146,0.164525,0.056139,0.160294,0.187195
0.385358,0.318743,0.045623,0.034188,0.158517,0.055299,0.163636,0.188947
0.384788,0.319480,0.046857,0.034704,0.156833,0.055237,0.165601,0.189853
0.381726,0.318885,0.048496,0.035510,0.153222,0.055049,0.169116,0.191097
0.379900,0.319952,0.050533,0.036050,0.148542,0.055101,0.172194,0.191669
0.377864,0.325278,0.057935,0.036818,0.146317,0.056442,0.180563,0.191093
0.374479,0.333446,0.063336,0.037285,0.146076,0.056951,0.182143,0.192989
0.374076,0.338284,0.065763,0.037523,0.145914,0.057001,0.181659,0.194742
0.372809,0.349019,0.069987,0.036796,0.145992,0.057109,0.181679,0.195920
0.372037,0.353415,0.071782,0.036534,0.145621,0.057212,0.181660,0.195839
0.371054,0.359597,0.074379,0.036125,0.143354,0.057359,0.181866,0.194717
0.369693,0.360314,0.075222,0.035749,0.144603,0.058979,0.179257,0.194238
0.373967,0.353753,0.076039,0.035537,0.144663,0.065172,0.172260,0.187650
0.370660,0.353250,0.076192,0.035597,0.147254,0.069683,0.171304,0.187827
0.366747,0.351308,0.075382,0.035562,0.152659,0.073746,0.170546,0.190993
0.362101,0.345495,0.074280,0.035195,0.159436,0.077412,0.170287,0.195146
0.359887,0.344572,0.074149,0.035249,0.162691,0.078885,0.170365,0.197564
0.355523,0.343284,0.074632,0.035440,0.165232,0.081532,0.170354,0.204887
0.353272,0.342874,0.074459,0.035513,0.165928,0.083920,0.172560,0.208340
0.347576,0.341482,0.073916,0.035907,0.166230,0.088651,0.180075,0.212005
0.338738,0.339445,0.072214,0.034677,0.164237,0.093647,0.184145,0.211895
0.334601,0.338566,0.071435,0.034124,0.162471,0.095944,0.183618,0.209468
0.305528,0.340757,0.068854,0.032853,0.159755,0.108515,0.188141,0.207619
0.300607,0.341723,0.068702,0.032948,0.160621,0.110777,0.191685,0.207244
0.290771,0.343939,0.068374,0.034230,0.166192,0.117067,0.201767,0.204653
0.286506,0.337984,0.065872,0.034983,0.170358,0.120704,0.207394,0.206681
0.285162,0.337554,0.064846,0.035275,0.172882,0.122591,0.208459,0.207798
0.278687,0.329508,0.061239,0.035568,0.179000,0.128146,0.210296,0.213795
0.268999,0.318266,0.058746,0.034548,0.181210,0.132138,0.216856,0.228047
0.260095,0.315841,0.056090,0.030711,0.186517,0.133270,0.226136,0.240471
0.261794,0.319394,0.055719,0.029857,0.187659,0.133053,0.227075,0.242114
0.261670,0.325568,0.055404,0.029134,0.189637,0.132813,0.229981,0.243662
0.260502,0.331967,0.055074,0.027528,0.194553,0.132976,0.235884,0.247023
0.260366,0.336727,0.056299,0.026647,0.198291,0.133895,0.238575,0.250437
0.265928,0.359798,0.062782,0.024973,0.208980,0.137847,0.248382,0.264080
0.267811,0.372697,0.062953,0.024334,0.213599,0.139417,0.254402,0.276801
0.269768,0.381378,0.061458,0.023741,0.216160,0.140404,0.261053,0.287658
0.271741,0.388035,0.060677,0.023442,0.216335,0.141713,0.264264,0.291906
0.278902,0.401005,0.059233,0.022974,0.217466,0.144528,0.271285,0.296184
0.285371,0.405714,0.056040,0.021994,0.218297,0.146763,0.277214,0.298246
0.291055,0.405908,0.054392,0.021681,0.218298,0.147929,0.279643,0.299506
0.306118,0.419769,0.051589,0.020948,0.219747,0.153338,0.287228,0.305907
0.310149,0.424935,0.051526,0.020817,0.218906,0.154355,0.288886,0.308614
0.313004,0.430620,0.051598,0.020705,0.217732,0.154303,0.289727,0.312301
0.311751,0.443733,0.051911,0.020266,0.213185,0.151182,0.290760,0.318688
0.311146,0.446547,0.052081,0.020065,0.211673,0.150258,0.290498,0.319705
0.312952,0.453188,0.052268,0.019983,0.201737,0.143264,0.287600,0.313210
0.313752,0.456096,0.052237,0.020179,0.201004,0.141659,0.286962,0.310374
0.316618,0.460267,0.051993,0.019840,0.200127,0.140118,0.285036,0.303030
0.318776,0.463566,0.050466,0.019553,0.198986,0.139753,0.283316,0.294191
0.325813,0.474811,0.048905,0.020242,0.196645,0.136388,0.272448,0.292099
0.329817,0.482869,0.048600,0.020594,0.196201,0.132410,0.264672,0.292859
0.332667,0.488092,0.048610,0.020730,0.197324,0.130687,0.261610,0.292816
0.338521,0.498745,0.048638,0.021107,0.199537,0.124003,0.251715,0.285860
0.338937,0.499706,0.048642,0.021169,0.198449,0.122003,0.248832,0.284126
0.340641,0.501261,0.048354,0.020536,0.201612,0.120092,0.239365,0.281865
0.337994,0.499538,0.048067,0.022150,0.201987,0.117464,0.221993,0.279749
0.336672,0.497193,0.047999,0.022740,0.201210,0.116800,0.216062,0.275335
0.336710,0.490306,0.047589,0.023739,0.199028,0.114847,0.205449,0.268772
0.333563,0.490905,0.047821,0.024519,0.197010,0.111844,0.195858,0.255593
0.332695,0.491267,0.047895,0.024822,0.196158,0.110488,0.190989,0.247635
0.332118,0.490408,0.047983,0.025597,0.191465,0.107856,0.180647,0.232477
0.342449,0.485484,0.047450,0.026617,0.185089,0.109956,0.167336,0.219177
0.346349,0.480654,0.047324,0.026878,0.184127,0.110796,0.163941,0.216207
0.356353,0.471568,0.046272,0.028963,0.178016,0.111238,0.152971,0.207341
0.357982,0.467974,0.043966,0.029405,0.173752,0.110185,0.149777,0.203793
0.359610,0.454596,0.038246,0.029970,0.165983,0.107221,0.142507,0.194602
0.358099,0.447030,0.035722,0.030126,0.163102,0.105942,0.139359,0.190798
0.354880,0.435695,0.033116,0.031425,0.160544,0.103679,0.130728,0.178659
0.351775,0.425465,0.030824,0.032312,0.158999,0.101724,0.119838,0.168137
0.350538,0.410585,0.029183,0.033065,0.159531,0.098415,0.111295,0.161211
0.348948,0.404889,0.028546,0.033487,0.160267,0.097245,0.107002,0.158955
0.351104,0.398051,0.027506,0.034443,0.164417,0.095957,0.101190,0.155424
0.351517,0.391383,0.026724,0.035989,0.168102,0.094190,0.096503,0.153010
0.357820,0.375632,0.024873,0.039122,0.175619,0.091432,0.094270,0.145780
0.362070,0.369262,0.024828,0.040489,0.180593,0.090105,0.094484,0.139771
0.364499,0.366581,0.025015,0.041103,0.182721,0.090200,0.094758,0.137641
0.367821,0.362166,0.025716,0.042341,0.186060,0.089757,0.095340,0.134075
0.369615,0.361029,0.026514,0.043935,0.189879,0.089797,0.095782,0.131664
0.371506,0.362173,0.026824,0.044583,0.190307,0.089691,0.095881,0.131079
0.378252,0.365476,0.027308,0.045184,0.187623,0.089447,0.096037,0.130165
0.385637,0.365425,0.027758,0.046115,0.184484,0.088238,0.096178,0.129950
0.388975,0.364287,0.027981,0.046775,0.182630,0.087492,0.096173,0.129663
0.400376,0.364717,0.028382,0.052676,0.184960,0.084808,0.097278,0.128986
0.411929,0.367486,0.029433,0.058718,0.188580,0.082738,0.096193,0.124024
0.420410,0.368178,0.029903,0.061477,0.190864,0.082558,0.095486,0.122718
0.430947,0.367465,0.030854,0.066467,0.193941,0.082121,0.093677,0.120523
0.438548,0.364184,0.031426,0.069656,0.194450,0.082035,0.090594,0.119837
0.444009,0.362618,0.031985,0.073691,0.197839,0.081541,0.089452,0.120121
0.458215,0.366614,0.033052,0.080384,0.202312,0.080483,0.087667,0.119976
0.470002,0.375891,0.033843,0.087354,0.202118,0.078713,0.086429,0.118889
0.474931,0.381705,0.034857,0.090993,0.203385,0.078039,0.085968,0.117344
0.483460,0.390985,0.036441,0.096191,0.204670,0.075700,0.085262,0.114322
0.492251,0.398970,0.037577,0.101443,0.207492,0.074057,0.085012,0.113500
0.496866,0.400275,0.037645,0.107835,0.211502,0.073349,0.085767,0.113554
0.503315,0.401485,0.038508,0.119939,0.220502,0.073397,0.087339,0.113071
0.508004,0.403857,0.038721,0.123741,0.225330,0.073467,0.088872,0.113918
0.509335,0.409902,0.039378,0.134056,0.235626,0.069692,0.092226,0.114029
0.509994,0.409773,0.039578,0.140930,0.243340,0.068909,0.093414,0.114028
0.510096,0.406179,0.039744,0.143960,0.246526,0.068421,0.091880,0.113823
0.511756,0.396394,0.040755,0.148738,0.252498,0.067338,0.089038,0.112539
0.519725,0.388188,0.043451,0.157142,0.262806,0.066029,0.085403,0.109167
0.523994,0.386712,0.043701,0.162045,0.268259,0.065073,0.083194,0.107567
0.525793,0.386976,0.043516,0.164049,0.269473,0.064724,0.082369,0.107057
0.527255,0.390494,0.043508,0.165798,0.270014,0.064545,0.081671,0.106625
0.533166,0.396668,0.043496,0.170094,0.272657,0.065121,0.080974,0.105715
0.538934,0.399268,0.043487,0.173266,0.271704,0.065365,0.079976,0.104392
0.539033,0.398651,0.043460,0.174446,0.270643,0.066732,0.079197,0.103928
0.530732,0.397988,0.043418,0.175601,0.268110,0.071885,0.076730,0.102676
0.520972,0.400493,0.043389,0.175087,0.265339,0.076864,0.075599,0.101509
0.514060,0.403613,0.043590,0.174623,0.263827,0.078475,0.073211,0.101353
0.491436,0.411219,0.041012,0.173482,0.260378,0.086860,0.069494,0.102375
0.486336,0.412756,0.039973,0.173182,0.260487,0.088318,0.070024,0.103106
0.477513,0.416102,0.038188,0.172510,0.260658,0.090521,0.071613,0.104369
0.470910,0.413590,0.036773,0.171244,0.258632,0.091938,0.073079,0.105167
0.468699,0.412307,0.036570,0.170753,0.258949,0.093263,0.075168,0.106306
0.460482,0.409835,0.036251,0.169937,0.259285,0.095464,0.079726,0.109747
0.446233,0.407885,0.035193,0.165221,0.256288,0.097406,0.086663,0.117054
0.438228,0.404462,0.034888,0.161775,0.253066,0.097578,0.088355,0.117345
0.423993,0.395066,0.033695,0.154658,0.248107,0.097613,0.091359,0.118589
0.407212,0.388259,0.032161,0.148636,0.242254,0.096702,0.094382,0.123908
0.400280,0.389353,0.031480,0.146161,0.239504,0.096404,0.095637,0.126092
0.391688,0.394618,0.030704,0.142460,0.235471,0.095893,0.097604,0.130630
0.372297,0.396655,0.030947,0.131111,0.221496,0.094396,0.100843,0.142053
0.367047,0.394317,0.031015,0.127932,0.217773,0.094187,0.102504,0.147349
0.362985,0.393182,0.031072,0.123650,0.212986,0.093874,0.103687,0.152968
0.353293,0.388772,0.030467,0.110961,0.201393,0.093689,0.109687,0.165767
0.350924,0.390212,0.030323,0.107499,0.197829,0.094342,0.112672,0.168628
0.346050,0.392968,0.030100,0.100657,0.190423,0.095820,0.121830,0.176842
0.342104,0.394818,0.030182,0.092338,0.183560,0.097082,0.131016,0.187948
0.339838,0.396124,0.029931,0.089010,0.181108,0.097518,0.134264,0.192949
0.328089,0.402110,0.030410,0.074475,0.168034,0.099093,0.141110,0.208561
0.325672,0.405266,0.030776,0.070931,0.164876,0.099625,0.142700,0.212929
0.318581,0.410974,0.031347,0.063894,0.156086,0.099521,0.146065,0.222816
0.310500,0.415740,0.031291,0.057535,0.147897,0.099492,0.148663,0.229852
0.305962,0.416645,0.031055,0.054947,0.143727,0.099487,0.149701,0.233078
0.290722,0.416926,0.030056,0.046990,0.132407,0.099808,0.152151,0.241009
0.283027,0.419189,0.029866,0.042298,0.124534,0.100548,0.153390,0.244721
0.280073,0.418956,0.029795,0.040062,0.121511,0.101349,0.153824,0.247798
0.275394,0.412158,0.029517,0.036563,0.117306,0.102326,0.154829,0.253713
0.266865,0.409782,0.029517,0.033080,0.114356,0.102827,0.155528,0.260714
0.256376,0.415547,0.029959,0.030019,0.112173,0.098794,0.156793,0.264356
0.252742,0.425419,0.030776,0.028758,0.110226,0.092249,0.158539,0.266399
0.248803,0.432568,0.031755,0.027309,0.103994,0.079740,0.158810,0.268358
0.248638,0.436909,0.031853,0.027395,0.103199,0.078610,0.158005,0.268561
0.249403,0.440271,0.031935,0.027416,0.102481,0.077591,0.156501,0.269483
0.253546,0.444068,0.032114,0.027461,0.103310,0.076002,0.152574,0.272739
0.256737,0.448235,0.032362,0.027481,0.104222,0.074971,0.149718,0.272889
0.258807,0.457400,0.032248,0.027495,0.104442,0.073659,0.146268,0.270629
0.262084,0.462293,0.032203,0.027500,0.104948,0.073094,0.144959,0.268240
0.267785,0.468916,0.032346,0.027874,0.106118,0.071895,0.140329,0.264343
0.275150,0.480237,0.033157,0.028272,0.106440,0.070885,0.136785,0.261138
0.277329,0.484577,0.033471,0.028242,0.106328,0.070196,0.135029,0.260508
0.291012,0.491022,0.034190,0.028617,0.107868,0.069453,0.129421,0.252208
0.294834,0.491299,0.034204,0.028598,0.110269,0.069866,0.128178,0.249759
0.296248,0.492147,0.034216,0.028581,0.112302,0.070432,0.127090,0.247035
0.300965,0.489334,0.032570,0.028546,0.119980,0.072478,0.123025,0.234767
0.307698,0.483213,0.031307,0.028335,0.127819,0.074039,0.118498,0.222527
0.309656,0.481835,0.030795,0.028205,0.130276,0.073880,0.117557,0.220478
0.313738,0.473179,0.029685,0.027426,0.135607,0.072311,0.107153,0.212657
0.315857,0.470823,0.029422,0.027177,0.136869,0.071234,0.101434,0.207812
0.320201,0.463216,0.028129,0.025882,0.137555,0.069588,0.091079,0.204382
0.324088,0.457641,0.027259,0.024018,0.137663,0.069195,0.084376,0.205866
0.324791,0.456521,0.026774,0.023386,0.136152,0.069292,0.083373,0.207848
0.321737,0.450961,0.025263,0.022399,0.132079,0.068645,0.079941,0.207746
0.323174,0.443042,0.023904,0.021470,0.128946,0.067254,0.075717,0.202895
0.326399,0.437959,0.022767,0.020805,0.126708,0.065917,0.071225,0.197728
0.331951,0.440771,0.021813,0.020698,0.125439,0.065007,0.068115,0.197795
0.334564,0.443120,0.021419,0.020826,0.124574,0.064660,0.066947,0.201069
0.341517,0.446793,0.018521,0.019991,0.129401,0.065936,0.064774,0.211954
0.345821,0.447028,0.017836,0.019972,0.134004,0.067007,0.064285,0.214574
0.353369,0.447069,0.016666,0.020080,0.139452,0.069183,0.064226,0.220705
0.357497,0.446405,0.016106,0.019933,0.141337,0.071052,0.064316,0.223657
0.371035,0.445366,0.015120,0.019783,0.144388,0.074867,0.065479,0.233001
0.378819,0.445736,0.014686,0.019635,0.144850,0.076185,0.065968,0.239435
0.410222,0.435821,0.012452,0.019269,0.145830,0.080330,0.066880,0.266256
0.416693,0.433710,0.011849,0.019200,0.146225,0.081283,0.066488,0.272317
0.429653,0.426749,0.011291,0.019092,0.146768,0.084328,0.066415,0.284164
0.447447,0.423475,0.011430,0.019305,0.145908,0.087330,0.067662,0.298592
0.455701,0.421972,0.012161,0.019262,0.144671,0.088699,0.068687,0.304919
0.473641,0.418619,0.013304,0.019195,0.144838,0.091033,0.071014,0.319920
0.491755,0.417720,0.014123,0.019146,0.144638,0.093085,0.073390,0.337576
0.522485,0.404496,0.015216,0.019519,0.144847,0.096682,0.077041,0.373517
0.534990,0.400016,0.016312,0.020712,0.146210,0.099045,0.079035,0.388960
0.540673,0.397795,0.016524,0.021300,0.148834,0.101048,0.080556,0.397594
0.553030,0.388260,0.016639,0.022218,0.152716,0.104369,0.082826,0.413733
0.564370,0.383341,0.016927,0.022547,0.157285,0.108947,0.085522,0.430788
0.567261,0.380477,0.017416,0.022663,0.159389,0.111148,0.087016,0.440342
0.574294,0.375500,0.018180,0.022892,0.161136,0.114867,0.089859,0.459936
0.584908,0.377282,0.018572,0.023056,0.161956,0.119105,0.093249,0.482066
0.591899,0.382372,0.018653,0.023094,0.162620,0.120463,0.095148,0.492621
