0.000000,0.008421,0.040000,0.022105,0.068421
0.000000,0.008421,0.040000,0.022105,0.068421
0.000000,0.008421,0.040000,0.022105,0.068421
0.000000,0.008421,0.041053,0.023158,0.068421
0.000000,0.008421,0.040000,0.022105,0.069474
0.000000,0.008421,0.040000,0.022105,0.069474
0.000000,0.008421,0.041053,0.023158,0.069474
0.000000,0.008421,0.041053,0.023158,0.069474
0.000000,0.008421,0.041053,0.023158,0.069474
0.000000,0.008421,0.041053,0.023158,0.069474
0.000000,0.008421,0.041053,0.023158,0.069474
0.000000,0.008421,0.041053,0.023158,0.069474
0.000000,0.008421,0.042105,0.023158,0.069474
0.000000,0.008421,0.042105,0.023158,0.069474
0.000000,0.008421,0.041053,0.023158,0.069474
0.000000,0.008421,0.041053,0.023158,0.069474
0.000000,0.007368,0.042105,0.023158,0.069474
0.000000,0.007368,0.042105,0.023158,0.069474
0.000000,0.008421,0.042105,0.023158,0.069474
0.000000,0.008421,0.042105,0.023158,0.069474
0.000000,0.008421,0.042105,0.023158,0.070526
0.000000,0.008421,0.042105,0.023158,0.070526
0.000000,0.008421,0.042105,0.022105,0.070526
0.000000,0.008421,0.042105,0.022105,0.070526
0.000000,0.008421,0.043158,0.023158,0.070526
0.000000,0.008421,0.043158,0.023158,0.070526
0.000000,0.008421,0.042105,0.023158,0.070526
0.000000,0.008421,0.042105,0.023158,0.070526
0.000000,0.007368,0.042105,0.023158,0.070526
0.000000,0.007368,0.042105,0.023158,0.070526
0.000000,0.007368,0.043158,0.023158,0.071579
0.000000,0.007368,0.043158,0.023158,0.071579
0.000000,0.008421,0.042105,0.023158,0.071579
0.000000,0.008421,0.042105,0.023158,0.071579
0.000000,0.007368,0.043158,0.023158,0.071579
0.000000,0.007368,0.043158,0.023158,0.071579
0.000000,0.007368,0.042105,0.022105,0.071579
0.000000,0.007368,0.042105,0.022105,0.071579
0.000000,0.007368,0.042105,0.023158,0.071579
0.000000,0.007368,0.042105,0.023158,0.071579
0.000000,0.008421,0.042105,0.023158,0.071579
0.000000,0.007368,0.043158,0.023158,0.072632
0.000000,0.007368,0.043158,0.023158,0.072632
0.000000,0.008421,0.042105,0.023158,0.072632
0.000000,0.008421,0.042105,0.023158,0.072632
0.000000,0.007368,0.043158,0.023158,0.072632
0.000000,0.007368,0.043158,0.023158,0.072632
0.000000,0.007368,0.043158,0.023158,0.072632
0.000000,0.007368,0.043158,0.023158,0.072632
0.000000,0.007368,0.042105,0.023158,0.073684
0.000000,0.007368,0.042105,0.023158,0.073684
0.000000,0.007368,0.043158,0.023158,0.073684
0.000000,0.007368,0.043158,0.023158,0.073684
0.000000,0.008421,0.043158,0.024211,0.074737
0.000000,0.008421,0.043158,0.024211,0.074737
0.000000,0.008421,0.043158,0.024211,0.075789
0.000000,0.008421,0.043158,0.024211,0.075789
0.000000,0.007368,0.043158,0.024211,0.081053
0.000000,0.007368,0.043158,0.024211,0.081053
0.000000,0.008421,0.045263,0.027368,0.091579
0.000000,0.008421,0.046316,0.033684,0.110526
0.000000,0.007368,0.047368,0.043158,0.138947
0.000000,0.007368,0.047368,0.043158,0.138947
0.000000,0.008421,0.049474,0.060000,0.175789
0.000000,0.008421,0.049474,0.060000,0.175789
0.000000,0.008421,0.051579,0.090526,0.228421
0.000000,0.008421,0.051579,0.090526,0.228421
0.000000,0.008421,0.054737,0.167368,0.326316
0.000000,0.008421,0.054737,0.167368,0.326316
0.000000,0.009474,0.058947,0.295789,0.451579
0.000000,0.009474,0.062105,0.407368,0.551579
0.000000,0.009474,0.062105,0.407368,0.551579
0.000000,0.009474,0.066316,0.507368,0.635790
0.000000,0.009474,0.066316,0.507368,0.635790
0.000000,0.010526,0.069474,0.609474,0.721053
0.000000,0.010526,0.069474,0.609474,0.721053
0.000000,0.010526,0.073684,0.702105,0.798947
0.000000,0.010526,0.073684,0.702105,0.798947
0.000000,0.011579,0.077895,0.764211,0.848421
0.000000,0.011579,0.083158,0.808421,0.881053
0.000000,0.011579,0.083158,0.808421,0.881053
0.000000,0.011579,0.088421,0.838947,0.903158
0.000000,0.011579,0.088421,0.838947,0.903158
0.000000,0.012632,0.093684,0.869474,0.925263
0.000000,0.012632,0.093684,0.869474,0.925263
0.000000,0.012632,0.100000,0.890526,0.941053
0.000000,0.012632,0.100000,0.890526,0.941053
0.000000,0.013684,0.108421,0.914737,0.958947
0.000000,0.013684,0.108421,0.914737,0.958947
0.000000,0.014737,0.124211,0.931579,0.969474
0.000000,0.014737,0.124211,0.931579,0.969474
0.000000,0.014737,0.145263,0.944210,0.965263
0.000000,0.014737,0.145263,0.944210,0.965263
0.000000,0.015789,0.170526,0.950526,0.953684
0.000000,0.015789,0.170526,0.950526,0.953684
0.000000,0.016842,0.209474,0.953684,0.949474
0.000000,0.017895,0.266316,0.954737,0.951579
0.000000,0.018947,0.338947,0.956842,0.956842
0.000000,0.018947,0.338947,0.956842,0.956842
0.000000,0.020000,0.420000,0.955790,0.962105
0.000000,0.020000,0.420000,0.955790,0.962105
0.000000,0.021053,0.501053,0.954737,0.966316
0.000000,0.021053,0.501053,0.954737,0.966316
0.000000,0.022105,0.569474,0.953684,0.969474
0.000000,0.022105,0.569474,0.953684,0.969474
0.000000,0.022105,0.616842,0.949474,0.969474
0.000000,0.023158,0.649474,0.948421,0.971579
0.000000,0.023158,0.649474,0.948421,0.971579
0.000000,0.024211,0.668421,0.947368,0.972632
0.000000,0.024211,0.668421,0.947368,0.972632
0.000000,0.025263,0.680000,0.947368,0.972632
0.000000,0.025263,0.680000,0.947368,0.972632
0.000000,0.025263,0.678947,0.947368,0.971579
0.000000,0.025263,0.678947,0.947368,0.971579
0.000000,0.026316,0.675789,0.946316,0.970526
0.000000,0.026316,0.669474,0.943158,0.969474
0.000000,0.026316,0.669474,0.943158,0.969474
0.000000,0.026316,0.664210,0.941053,0.969474
0.000000,0.026316,0.664210,0.941053,0.969474
0.000000,0.027368,0.655789,0.940000,0.966316
0.000000,0.027368,0.655789,0.940000,0.966316
0.000000,0.028421,0.644211,0.935789,0.965263
0.000000,0.028421,0.644211,0.935789,0.965263
0.000000,0.028421,0.632632,0.932632,0.963158
0.000000,0.028421,0.632632,0.932632,0.963158
0.000000,0.028421,0.616842,0.929474,0.957895
0.000000,0.028421,0.616842,0.929474,0.957895
0.000000,0.028421,0.595789,0.924211,0.951579
0.000000,0.028421,0.595789,0.924211,0.951579
0.000000,0.028421,0.566316,0.914737,0.942105
0.000000,0.028421,0.566316,0.914737,0.942105
0.000000,0.029474,0.527368,0.901053,0.922105
0.000000,0.029474,0.482105,0.878947,0.878947
0.000000,0.029474,0.482105,0.878947,0.878947
0.000000,0.028421,0.433684,0.845263,0.800000
0.000000,0.029474,0.386316,0.777895,0.687368
0.000000,0.029474,0.386316,0.777895,0.687368
0.000000,0.029474,0.338947,0.650526,0.581053
0.000000,0.029474,0.338947,0.650526,0.581053
0.000000,0.028421,0.297895,0.520000,0.498947
0.000000,0.028421,0.297895,0.520000,0.498947
0.000000,0.027368,0.263158,0.408421,0.441053
0.000000,0.027368,0.263158,0.408421,0.441053
0.000000,0.026316,0.234737,0.325263,0.392632
0.000000,0.026316,0.208421,0.266316,0.350526
0.000000,0.026316,0.208421,0.266316,0.350526
0.000000,0.026316,0.183158,0.226316,0.316842
0.000000,0.026316,0.183158,0.226316,0.316842
0.000000,0.024211,0.162105,0.195789,0.289474
0.000000,0.024211,0.144211,0.172632,0.264211
0.000000,0.024211,0.144211,0.172632,0.264211
0.000000,0.023158,0.129474,0.154737,0.243158
0.000000,0.023158,0.115789,0.140000,0.223158
0.000000,0.023158,0.115789,0.140000,0.223158
0.000000,0.021053,0.103158,0.128421,0.203158
0.000000,0.021053,0.103158,0.128421,0.203158
0.000000,0.020000,0.092632,0.118947,0.186316
0.000000,0.020000,0.092632,0.118947,0.186316
0.000000,0.020000,0.084211,0.111579,0.171579
0.000000,0.020000,0.084211,0.111579,0.171579
0.000000,0.017895,0.076842,0.106316,0.156842
0.000000,0.016842,0.070526,0.100000,0.143158
0.000000,0.016842,0.070526,0.100000,0.143158
0.000000,0.014737,0.063158,0.095789,0.129474
0.000000,0.014737,0.063158,0.095789,0.129474
0.000000,0.012632,0.057895,0.089474,0.115789
0.000000,0.010526,0.052632,0.082105,0.104211
0.000000,0.010526,0.052632,0.082105,0.104211
0.000000,0.009474,0.047368,0.073684,0.095789
0.000000,0.008421,0.043158,0.068421,0.089474
0.000000,0.008421,0.043158,0.068421,0.089474
0.000000,0.007368,0.041053,0.064211,0.085263
0.000000,0.007368,0.041053,0.064211,0.085263
0.000000,0.006316,0.038947,0.061053,0.082105
0.000000,0.006316,0.038947,0.061053,0.082105
0.000000,0.005263,0.037895,0.058947,0.080000
0.000000,0.005263,0.037895,0.058947,0.080000
0.000000,0.005263,0.036842,0.057895,0.078947
0.000000,0.004211,0.037895,0.056842,0.080000
0.000000,0.004211,0.037895,0.056842,0.080000
0.000000,0.005263,0.038947,0.057895,0.082105
0.000000,0.005263,0.038947,0.057895,0.082105
0.000000,0.005263,0.042105,0.060000,0.088421
0.000000,0.005263,0.042105,0.060000,0.088421
0.000000,0.005263,0.049474,0.068421,0.097895
0.000000,0.005263,0.049474,0.068421,0.097895
0.000000,0.005263,0.073684,0.143158,0.107368
0.000000,0.005263,0.114737,0.306316,0.123158
0.000000,0.005263,0.114737,0.306316,0.123158
0.000000,0.005263,0.172632,0.523158,0.154737
0.000000,0.005263,0.172632,0.523158,0.154737
0.000000,0.006316,0.260000,0.721053,0.243158
0.000000,0.006316,0.260000,0.721053,0.243158
0.000000,0.007368,0.376842,0.843158,0.422105
0.000000,0.007368,0.376842,0.843158,0.422105
0.000000,0.007368,0.495789,0.905263,0.602105
0.000000,0.008421,0.585263,0.931579,0.708421
0.000000,0.008421,0.585263,0.931579,0.708421
0.000000,0.009474,0.664210,0.954737,0.784211
0.000000,0.009474,0.664210,0.954737,0.784211
0.000000,0.009474,0.705263,0.966316,0.827368
0.000000,0.009474,0.778947,0.981053,0.888421
0.000000,0.009474,0.778947,0.981053,0.888421
0.000000,0.010526,0.833684,0.989474,0.917895
0.000000,0.010526,0.833684,0.989474,0.917895
0.000000,0.011579,0.874737,0.994737,0.935789
0.000000,0.011579,0.874737,0.994737,0.935789
0.000000,0.011579,0.903158,0.998947,0.942105
0.000000,0.011579,0.903158,0.998947,0.942105
0.000000,0.012632,0.929474,1.000000,0.947368
0.000000,0.012632,0.929474,1.000000,0.947368
0.000000,0.013684,0.953684,1.000000,0.943158
0.000000,0.013684,0.953684,1.000000,0.943158
0.000000,0.014737,0.969474,1.000000,0.925263
0.000000,0.016842,0.974737,0.993684,0.916842
0.000000,0.016842,0.974737,0.993684,0.916842
0.000000,0.016842,0.974737,0.991579,0.914737
0.000000,0.016842,0.974737,0.991579,0.914737
0.000000,0.017895,0.974737,0.989474,0.914737
0.000000,0.017895,0.974737,0.989474,0.914737
0.000000,0.017895,0.973684,0.987368,0.915789
0.000000,0.017895,0.973684,0.987368,0.915789
0.000000,0.017895,0.970526,0.984211,0.918947
0.000000,0.017895,0.970526,0.984211,0.918947
0.000000,0.018947,0.967368,0.984211,0.918947
0.000000,0.018947,0.963158,0.982105,0.915789
0.000000,0.018947,0.963158,0.982105,0.915789
0.000000,0.018947,0.957895,0.982105,0.916842
0.000000,0.018947,0.957895,0.982105,0.916842
0.000000,0.020000,0.954737,0.978947,0.916842
0.000000,0.020000,0.954737,0.978947,0.916842
0.000000,0.021053,0.950526,0.976842,0.913684
0.000000,0.021053,0.950526,0.976842,0.913684
0.000000,0.021053,0.946316,0.973684,0.908421
0.000000,0.021053,0.937895,0.969474,0.900000
0.000000,0.022105,0.921053,0.962105,0.881053
0.000000,0.022105,0.921053,0.962105,0.881053
0.000000,0.022105,0.889474,0.949474,0.845263
0.000000,0.022105,0.889474,0.949474,0.845263
0.000000,0.023158,0.844211,0.929474,0.775789
0.000000,0.023158,0.844211,0.929474,0.775789
0.000000,0.022105,0.768421,0.894737,0.686316
0.000000,0.022105,0.666316,0.825263,0.602105
0.000000,0.022105,0.666316,0.825263,0.602105
0.000000,0.021053,0.538947,0.669474,0.487368
0.000000,0.021053,0.538947,0.669474,0.487368
0.000000,0.020000,0.425263,0.488421,0.418947
0.000000,0.020000,0.425263,0.488421,0.418947
0.000000,0.018947,0.335790,0.348421,0.365263
0.000000,0.018947,0.335790,0.348421,0.365263
0.000000,0.017895,0.268421,0.266316,0.313684
0.000000,0.016842,0.217895,0.218947,0.270526
0.000000,0.016842,0.217895,0.218947,0.270526
0.000000,0.014737,0.183158,0.190526,0.236842
0.000000,0.014737,0.183158,0.190526,0.236842
0.000000,0.013684,0.157895,0.168421,0.210526
0.000000,0.013684,0.157895,0.168421,0.210526
0.000000,0.012632,0.140000,0.153684,0.189474
0.000000,0.012632,0.140000,0.153684,0.189474
0.000000,0.010526,0.125263,0.144211,0.173684
0.000000,0.008421,0.111579,0.135789,0.158947
0.000000,0.008421,0.111579,0.135789,0.158947
0.000000,0.007368,0.100000,0.129474,0.145263
0.000000,0.007368,0.100000,0.129474,0.145263
0.000000,0.005263,0.090526,0.124211,0.133684
0.000000,0.005263,0.090526,0.124211,0.133684
0.000000,0.003158,0.083158,0.117895,0.124211
0.000000,0.003158,0.083158,0.117895,0.124211
0.000000,0.003158,0.077895,0.110526,0.115789
0.000000,0.002105,0.073684,0.105263,0.111579
0.000000,0.001053,0.071579,0.102105,0.107368
0.000000,0.001053,0.071579,0.102105,0.107368
0.000000,0.001053,0.070526,0.098947,0.105263
0.000000,0.001053,0.070526,0.098947,0.105263
0.000000,0.000000,0.069474,0.096842,0.103158
0.000000,0.000000,0.069474,0.096842,0.103158
0.000000,0.000000,0.071579,0.096842,0.102105
0.000000,0.000000,0.071579,0.096842,0.102105
0.000000,0.001053,0.075789,0.094737,0.103158
0.000000,0.001053,0.075789,0.094737,0.103158
0.000000,0.001053,0.093684,0.094737,0.105263
0.000000,0.001053,0.093684,0.094737,0.105263
0.000000,0.002105,0.158947,0.094737,0.106316
0.000000,0.002105,0.158947,0.094737,0.106316
0.000000,0.003158,0.255789,0.100000,0.109474
0.000000,0.003158,0.255789,0.100000,0.109474
0.000000,0.003158,0.362105,0.131579,0.111579
0.000000,0.003158,0.362105,0.131579,0.111579
0.000000,0.005263,0.505263,0.255789,0.114737
0.000000,0.007368,0.681053,0.520000,0.121053
0.000000,0.007368,0.681053,0.520000,0.121053
0.000000,0.010526,0.787368,0.728421,0.132632
0.000000,0.010526,0.787368,0.728421,0.132632
0.000000,0.014737,0.836842,0.809474,0.153684
0.000000,0.014737,0.836842,0.809474,0.153684
0.000000,0.018947,0.871579,0.862105,0.182105
0.000000,0.018947,0.871579,0.862105,0.182105
0.000000,0.025263,0.912632,0.911579,0.222105
0.000000,0.036842,0.938947,0.937895,0.286316
0.000000,0.036842,0.938947,0.937895,0.286316
0.000000,0.051579,0.951579,0.951579,0.370526
0.000000,0.051579,0.951579,0.951579,0.370526
0.000000,0.070526,0.960000,0.958947,0.447368
0.000000,0.070526,0.960000,0.958947,0.447368
0.000000,0.093684,0.969474,0.967368,0.516842
0.000000,0.093684,0.969474,0.967368,0.516842
0.000000,0.166316,0.985263,0.983158,0.675789
0.000000,0.166316,0.985263,0.983158,0.675789
0.000000,0.210526,0.986316,0.986316,0.729474
0.000000,0.210526,0.986316,0.986316,0.729474
0.000000,0.250526,0.986316,0.986316,0.764211
0.000000,0.250526,0.986316,0.986316,0.764211
0.000000,0.292632,0.986316,0.985263,0.793684
0.000000,0.292632,0.986316,0.985263,0.793684
0.000000,0.333684,0.985263,0.984211,0.809474
0.000000,0.333684,0.985263,0.984211,0.809474
0.000000,0.368421,0.983158,0.982105,0.822105
0.000000,0.368421,0.983158,0.982105,0.822105
0.000000,0.391579,0.981053,0.978947,0.823158
0.000000,0.391579,0.981053,0.978947,0.823158
0.000000,0.397895,0.978947,0.973684,0.818947
0.000000,0.397895,0.978947,0.973684,0.818947
0.000000,0.395789,0.975789,0.970526,0.812632
0.000000,0.395789,0.975789,0.970526,0.812632
0.000000,0.392632,0.973684,0.968421,0.810526
0.000000,0.389474,0.971579,0.966316,0.805263
0.000000,0.389474,0.971579,0.966316,0.805263
0.000000,0.385263,0.968421,0.964211,0.796842
0.000000,0.385263,0.968421,0.964211,0.796842
0.000000,0.374737,0.966316,0.962105,0.781053
0.000000,0.374737,0.966316,0.962105,0.781053
0.000000,0.351579,0.962105,0.955790,0.755790
0.000000,0.351579,0.962105,0.955790,0.755790
0.000000,0.312632,0.955790,0.946316,0.722105
0.000000,0.263158,0.942105,0.934737,0.670526
0.000000,0.263158,0.942105,0.934737,0.670526
0.000000,0.213684,0.920000,0.913684,0.593684
0.000000,0.213684,0.920000,0.913684,0.593684
0.000000,0.175789,0.877895,0.876842,0.507368
0.000000,0.175789,0.877895,0.876842,0.507368
0.000000,0.149474,0.798947,0.798947,0.435789
0.000000,0.149474,0.798947,0.798947,0.435789
0.000000,0.129474,0.665263,0.650526,0.378947
0.000000,0.114737,0.512632,0.458947,0.334737
0.000000,0.114737,0.512632,0.458947,0.334737
0.000000,0.101053,0.391579,0.333684,0.294737
0.000000,0.089474,0.306316,0.264211,0.258947
0.000000,0.089474,0.306316,0.264211,0.258947
0.000000,0.080000,0.244211,0.222105,0.228421
0.000000,0.080000,0.244211,0.222105,0.228421
0.000000,0.070526,0.203158,0.195789,0.205263
0.000000,0.070526,0.203158,0.195789,0.205263
0.000000,0.063158,0.176842,0.176842,0.188421
0.000000,0.063158,0.176842,0.176842,0.188421
0.000000,0.056842,0.157895,0.163158,0.175789
0.000000,0.056842,0.157895,0.163158,0.175789
0.000000,0.051579,0.142105,0.153684,0.163158
0.000000,0.051579,0.142105,0.153684,0.163158
0.000000,0.047368,0.130526,0.145263,0.153684
0.000000,0.047368,0.130526,0.145263,0.153684
0.000000,0.044211,0.122105,0.140000,0.147368
0.000000,0.044211,0.122105,0.140000,0.147368
0.000000,0.041053,0.115789,0.135789,0.141053
0.000000,0.038947,0.111579,0.131579,0.137895
0.000000,0.038947,0.111579,0.131579,0.137895
0.000000,0.037895,0.108421,0.129474,0.134737
0.000000,0.037895,0.108421,0.129474,0.134737
0.000000,0.035789,0.106316,0.127368,0.132632
0.000000,0.035789,0.106316,0.127368,0.132632
0.000000,0.034737,0.103158,0.125263,0.130526
0.000000,0.034737,0.103158,0.125263,0.130526
0.000000,0.034737,0.102105,0.123158,0.128421
0.000000,0.034737,0.102105,0.123158,0.128421
0.000000,0.034737,0.101053,0.122105,0.127368
0.000000,0.034737,0.101053,0.122105,0.127368
0.000000,0.036842,0.102105,0.120000,0.128421
0.000000,0.036842,0.102105,0.120000,0.128421
0.000000,0.037895,0.103158,0.117895,0.129474
0.000000,0.037895,0.103158,0.117895,0.129474
0.000000,0.040000,0.108421,0.117895,0.130526
0.000000,0.040000,0.108421,0.117895,0.130526
0.000000,0.044211,0.114737,0.117895,0.132632
0.000000,0.045263,0.118947,0.117895,0.134737
0.000000,0.051579,0.136842,0.120000,0.137895
0.000000,0.051579,0.136842,0.120000,0.137895
0.000000,0.066316,0.163158,0.123158,0.143158
0.000000,0.066316,0.163158,0.123158,0.143158
0.000000,0.091579,0.195789,0.132632,0.148421
0.000000,0.091579,0.195789,0.132632,0.148421
0.000000,0.138947,0.234737,0.147368,0.154737
0.000000,0.214737,0.284211,0.171579,0.161053
0.000000,0.214737,0.284211,0.171579,0.161053
0.000000,0.331579,0.338947,0.205263,0.167368
0.000000,0.331579,0.338947,0.205263,0.167368
0.000000,0.465263,0.384211,0.243158,0.172632
0.000000,0.465263,0.384211,0.243158,0.172632
0.000000,0.589474,0.423158,0.274737,0.176842
0.000000,0.589474,0.423158,0.274737,0.176842
0.000000,0.713684,0.466316,0.311579,0.181053
0.000000,0.828421,0.517895,0.365263,0.186316
0.000000,0.828421,0.517895,0.365263,0.186316
0.000000,0.903158,0.574737,0.437895,0.191579
0.000000,0.903158,0.574737,0.437895,0.191579
0.000000,0.944210,0.626316,0.515789,0.196842
0.000000,0.944210,0.626316,0.515789,0.196842
0.000000,0.972632,0.680000,0.603158,0.205263
0.000000,0.972632,0.680000,0.603158,0.205263
0.000000,0.988421,0.743158,0.711579,0.218947
0.000000,0.988421,0.743158,0.711579,0.218947
0.000000,0.993684,0.792632,0.790526,0.249474
0.000000,0.993684,0.792632,0.790526,0.249474
0.000000,0.993684,0.822105,0.831579,0.296842
0.000000,0.993684,0.822105,0.831579,0.296842
0.000000,0.992632,0.837895,0.854737,0.346316
0.000000,0.992632,0.837895,0.854737,0.346316
0.000000,0.992632,0.853684,0.873684,0.391579
0.000000,0.992632,0.853684,0.873684,0.391579
0.000000,0.991579,0.863158,0.887368,0.432632
0.000000,0.990526,0.868421,0.893684,0.470526
0.000000,0.987368,0.869474,0.895789,0.498947
0.000000,0.987368,0.869474,0.895789,0.498947
0.000000,0.986316,0.865263,0.891579,0.511579
0.000000,0.986316,0.865263,0.891579,0.511579
0.000000,0.982105,0.852632,0.883158,0.507368
0.000000,0.982105,0.852632,0.883158,0.507368
0.000000,0.980000,0.835790,0.869474,0.492632
0.000000,0.980000,0.835790,0.869474,0.492632
0.000000,0.978947,0.824211,0.855789,0.478947
0.000000,0.975789,0.812632,0.848421,0.469474
0.000000,0.975789,0.812632,0.848421,0.469474
0.000000,0.972632,0.796842,0.834737,0.453684
0.000000,0.972632,0.796842,0.834737,0.453684
0.000000,0.964211,0.767368,0.798947,0.414737
0.000000,0.964211,0.767368,0.798947,0.414737
0.000000,0.938947,0.707368,0.717895,0.367368
0.000000,0.938947,0.707368,0.717895,0.367368
0.000000,0.861053,0.587368,0.565263,0.330526
0.000000,0.678947,0.448421,0.418947,0.303158
0.000000,0.678947,0.448421,0.418947,0.303158
0.000000,0.451579,0.350526,0.335790,0.281053
0.000000,0.451579,0.350526,0.335790,0.281053
0.000000,0.303158,0.283158,0.280000,0.258947
0.000000,0.303158,0.283158,0.280000,0.258947
0.000000,0.234737,0.238947,0.242105,0.235789
0.000000,0.234737,0.238947,0.242105,0.235789
0.000000,0.201053,0.208421,0.213684,0.216842
0.000000,0.201053,0.208421,0.213684,0.216842
0.000000,0.178947,0.186316,0.193684,0.201053
0.000000,0.178947,0.186316,0.193684,0.201053
0.000000,0.162105,0.169474,0.177895,0.188421
0.000000,0.162105,0.169474,0.177895,0.188421
0.000000,0.149474,0.155789,0.166316,0.176842
0.000000,0.149474,0.155789,0.166316,0.176842
0.000000,0.138947,0.143158,0.156842,0.168421
0.000000,0.138947,0.143158,0.156842,0.168421
0.000000,0.121053,0.127368,0.142105,0.151579
0.000000,0.121053,0.127368,0.142105,0.151579
0.000000,0.116842,0.122105,0.136842,0.145263
0.000000,0.116842,0.122105,0.136842,0.145263
0.000000,0.111579,0.117895,0.132632,0.140000
0.000000,0.111579,0.117895,0.132632,0.140000
0.000000,0.107368,0.114737,0.128421,0.134737
0.000000,0.107368,0.114737,0.128421,0.134737
0.000000,0.103158,0.111579,0.125263,0.130526
0.000000,0.101053,0.109474,0.122105,0.127368
0.000000,0.101053,0.109474,0.122105,0.127368
0.000000,0.098947,0.106316,0.121053,0.124211
0.000000,0.098947,0.106316,0.121053,0.124211
0.000000,0.095789,0.105263,0.118947,0.123158
0.000000,0.095789,0.105263,0.118947,0.123158
0.000000,0.094737,0.103158,0.116842,0.121053
0.000000,0.094737,0.103158,0.116842,0.121053
0.000000,0.092632,0.102105,0.115789,0.118947
0.000000,0.091579,0.101053,0.113684,0.116842
0.000000,0.091579,0.101053,0.113684,0.116842
0.000000,0.090526,0.100000,0.112632,0.116842
0.000000,0.090526,0.100000,0.112632,0.116842
0.000000,0.089474,0.100000,0.111579,0.115789
0.000000,0.089474,0.100000,0.111579,0.115789
0.000000,0.088421,0.098947,0.110526,0.115789
0.000000,0.088421,0.098947,0.110526,0.115789
0.000000,0.087368,0.097895,0.109474,0.114737
0.000000,0.086316,0.097895,0.108421,0.113684
0.000000,0.086316,0.097895,0.108421,0.113684
0.000000,0.085263,0.096842,0.108421,0.113684
0.000000,0.085263,0.096842,0.108421,0.113684
0.000000,0.084211,0.095789,0.106316,0.112632
0.000000,0.084211,0.095789,0.106316,0.112632
0.045263,0.084211,0.095789,0.106316,0.112632
0.045263,0.084211,0.095789,0.106316,0.112632
0.337895,0.082105,0.095789,0.104211,0.112632
0.337895,0.082105,0.095789,0.104211,0.112632
0.561053,0.081053,0.095789,0.104211,0.112632
0.561053,0.081053,0.095789,0.104211,0.112632
0.737895,0.080000,0.095789,0.104211,0.112632
0.737895,0.080000,0.095789,0.104211,0.112632
0.857895,0.080000,0.095789,0.103158,0.112632
0.857895,0.080000,0.095789,0.103158,0.112632
0.950526,0.080000,0.095789,0.102105,0.110526
0.950526,0.080000,0.095789,0.102105,0.110526
0.993684,0.078947,0.095789,0.102105,0.110526
1.000000,0.077895,0.095789,0.102105,0.110526
1.000000,0.077895,0.095789,0.102105,0.110526
1.000000,0.077895,0.096842,0.101053,0.111579
1.000000,0.077895,0.096842,0.101053,0.111579
1.000000,0.077895,0.096842,0.102105,0.112632
1.000000,0.077895,0.096842,0.102105,0.112632
1.000000,0.076842,0.098947,0.102105,0.111579
1.000000,0.076842,0.098947,0.102105,0.111579
1.000000,0.076842,0.098947,0.101053,0.112632
1.000000,0.076842,0.098947,0.101053,0.112632
1.000000,0.076842,0.098947,0.101053,0.112632
1.000000,0.076842,0.100000,0.101053,0.112632
1.000000,0.076842,0.100000,0.101053,0.112632
1.000000,0.075789,0.101053,0.101053,0.112632
1.000000,0.075789,0.101053,0.101053,0.112632
1.000000,0.075789,0.102105,0.101053,0.112632
1.000000,0.075789,0.102105,0.101053,0.112632
1.000000,0.075789,0.102105,0.102105,0.113684
1.000000,0.074737,0.102105,0.101053,0.114737
1.000000,0.074737,0.102105,0.101053,0.114737
1.000000,0.074737,0.101053,0.100000,0.114737
1.000000,0.074737,0.101053,0.100000,0.114737
1.000000,0.074737,0.100000,0.100000,0.114737
1.000000,0.074737,0.100000,0.100000,0.114737
1.000000,0.074737,0.101053,0.100000,0.115789
1.000000,0.074737,0.103158,0.102105,0.116842
1.000000,0.074737,0.103158,0.102105,0.116842
1.000000,0.075789,0.104211,0.102105,0.117895
1.000000,0.075789,0.104211,0.102105,0.117895
1.000000,0.074737,0.104211,0.102105,0.118947
1.000000,0.074737,0.104211,0.102105,0.118947
1.000000,0.073684,0.104211,0.101053,0.118947
1.000000,0.073684,0.104211,0.101053,0.118947
1.000000,0.074737,0.103158,0.101053,0.118947
1.000000,0.074737,0.103158,0.101053,0.118947
1.000000,0.074737,0.103158,0.100000,0.117895
1.000000,0.073684,0.101053,0.100000,0.116842
1.000000,0.073684,0.101053,0.100000,0.116842
1.000000,0.073684,0.097895,0.097895,0.115789
1.000000,0.073684,0.097895,0.097895,0.115789
0.930526,0.073684,0.094737,0.094737,0.112632
0.930526,0.073684,0.094737,0.094737,0.112632
0.720000,0.071579,0.090526,0.090526,0.111579
0.720000,0.071579,0.090526,0.090526,0.111579
0.385263,0.069474,0.087368,0.088421,0.108421
0.221053,0.068421,0.084211,0.085263,0.107368
0.221053,0.068421,0.084211,0.085263,0.107368
0.144211,0.066316,0.082105,0.083158,0.104211
0.144211,0.066316,0.082105,0.083158,0.104211
0.107368,0.065263,0.077895,0.080000,0.102105
0.107368,0.065263,0.077895,0.080000,0.102105
0.083158,0.063158,0.074737,0.076842,0.098947
0.083158,0.063158,0.074737,0.076842,0.098947
0.068421,0.060000,0.070526,0.073684,0.095789
0.058947,0.058947,0.067368,0.070526,0.091579
0.058947,0.058947,0.067368,0.070526,0.091579
0.052632,0.056842,0.064211,0.067368,0.087368
0.052632,0.056842,0.064211,0.067368,0.087368
0.047368,0.053684,0.061053,0.065263,0.082105
0.047368,0.053684,0.061053,0.065263,0.082105
0.043158,0.052632,0.057895,0.063158,0.077895
0.043158,0.052632,0.057895,0.063158,0.077895
0.040000,0.050526,0.054737,0.061053,0.073684
0.040000,0.050526,0.054737,0.061053,0.073684
0.036842,0.048421,0.052632,0.060000,0.069474
0.034737,0.048421,0.052632,0.057895,0.067368
0.034737,0.048421,0.052632,0.057895,0.067368
0.032632,0.047368,0.051579,0.056842,0.065263
0.032632,0.047368,0.051579,0.056842,0.065263
0.030526,0.046316,0.049474,0.055789,0.063158
0.030526,0.046316,0.049474,0.055789,0.063158
0.029474,0.045263,0.049474,0.055789,0.061053
0.029474,0.045263,0.049474,0.055789,0.061053
0.028421,0.044211,0.048421,0.054737,0.058947
0.026316,0.043158,0.048421,0.053684,0.058947
0.026316,0.043158,0.048421,0.053684,0.058947
0.026316,0.043158,0.048421,0.053684,0.058947
0.026316,0.043158,0.048421,0.053684,0.058947
0.025263,0.042105,0.048421,0.053684,0.058947
0.025263,0.042105,0.048421,0.053684,0.058947
0.024211,0.043158,0.049474,0.052632,0.058947
0.024211,0.043158,0.049474,0.052632,0.058947
0.024211,0.043158,0.050526,0.052632,0.061053
0.023158,0.043158,0.051579,0.051579,0.061053
0.023158,0.043158,0.051579,0.051579,0.061053
0.023158,0.043158,0.052632,0.051579,0.064211
0.023158,0.043158,0.052632,0.051579,0.064211
0.023158,0.043158,0.056842,0.052632,0.068421
0.023158,0.043158,0.056842,0.052632,0.068421
0.022105,0.044211,0.061053,0.054737,0.077895
0.022105,0.044211,0.061053,0.054737,0.077895
0.022105,0.045263,0.069474,0.064211,0.097895
0.022105,0.046316,0.078947,0.086316,0.132632
0.022105,0.046316,0.078947,0.086316,0.132632
0.022105,0.047368,0.087368,0.125263,0.184211
0.022105,0.047368,0.087368,0.125263,0.184211
0.022105,0.047368,0.096842,0.187368,0.265263
0.021053,0.048421,0.105263,0.281053,0.380000
0.021053,0.048421,0.105263,0.281053,0.380000
0.021053,0.048421,0.105263,0.281053,0.380000
0.021053,0.050526,0.113684,0.416842,0.512632
0.021053,0.050526,0.121053,0.563158,0.643158
0.021053,0.050526,0.121053,0.563158,0.643158
0.020000,0.051579,0.128421,0.689474,0.751579
0.020000,0.051579,0.128421,0.689474,0.751579
0.020000,0.052632,0.136842,0.770526,0.825263
0.020000,0.052632,0.136842,0.770526,0.825263
0.020000,0.053684,0.145263,0.835790,0.883158
0.020000,0.053684,0.145263,0.835790,0.883158
0.018947,0.055789,0.153684,0.884211,0.924211
0.018947,0.056842,0.168421,0.920000,0.951579
0.018947,0.056842,0.168421,0.920000,0.951579
0.018947,0.057895,0.185263,0.943158,0.972632
0.018947,0.057895,0.185263,0.943158,0.972632
0.018947,0.058947,0.206316,0.968421,0.990526
0.018947,0.058947,0.206316,0.968421,0.990526
0.020000,0.061053,0.234737,0.983158,1.000000
0.020000,0.061053,0.234737,0.983158,1.000000
0.020000,0.062105,0.277895,0.994737,1.000000
0.020000,0.065263,0.342105,1.000000,0.996842
0.020000,0.065263,0.342105,1.000000,0.996842
0.020000,0.066316,0.432632,1.000000,0.992632
0.020000,0.066316,0.432632,1.000000,0.992632
0.018947,0.068421,0.517895,1.000000,0.987368
0.018947,0.068421,0.517895,1.000000,0.987368
0.018947,0.070526,0.586316,1.000000,0.985263
0.018947,0.070526,0.586316,1.000000,0.985263
0.018947,0.072632,0.645263,1.000000,0.982105
0.018947,0.073684,0.683158,0.998947,0.981053
0.018947,0.073684,0.683158,0.998947,0.981053
0.017895,0.075789,0.701053,0.996842,0.980000
0.017895,0.075789,0.701053,0.996842,0.980000
0.017895,0.074737,0.700000,0.994737,0.977895
0.017895,0.074737,0.700000,0.994737,0.977895
0.017895,0.076842,0.683158,0.990526,0.975789
0.017895,0.076842,0.683158,0.990526,0.975789
0.017895,0.077895,0.671579,0.988421,0.973684
0.016842,0.078947,0.661053,0.987368,0.972632
0.016842,0.078947,0.661053,0.987368,0.972632
0.015789,0.077895,0.645263,0.984211,0.969474
0.015789,0.077895,0.645263,0.984211,0.969474
0.016842,0.080000,0.624211,0.978947,0.967368
0.016842,0.080000,0.624211,0.978947,0.967368
0.016842,0.080000,0.592632,0.972632,0.961053
0.016842,0.080000,0.592632,0.972632,0.961053
0.015789,0.080000,0.549474,0.962105,0.944210
0.015789,0.080000,0.549474,0.962105,0.944210
0.015789,0.080000,0.502105,0.943158,0.912632
0.015789,0.078947,0.458947,0.908421,0.869474
0.015789,0.078947,0.458947,0.908421,0.869474
0.016842,0.076842,0.416842,0.846316,0.810526
0.016842,0.076842,0.416842,0.846316,0.810526
0.015789,0.075789,0.361053,0.717895,0.729474
0.015789,0.075789,0.361053,0.717895,0.729474
0.015789,0.074737,0.304211,0.516842,0.581053
0.015789,0.074737,0.304211,0.516842,0.581053
0.016842,0.072632,0.253684,0.364211,0.444211
0.015789,0.070526,0.208421,0.283158,0.354737
0.015789,0.070526,0.208421,0.283158,0.354737
0.015789,0.068421,0.173684,0.236842,0.289474
0.015789,0.068421,0.173684,0.236842,0.289474
0.014737,0.065263,0.149474,0.209474,0.247368
0.014737,0.065263,0.149474,0.209474,0.247368
0.014737,0.062105,0.130526,0.191579,0.216842
0.014737,0.062105,0.130526,0.191579,0.216842
0.013684,0.058947,0.116842,0.177895,0.190526
0.013684,0.055789,0.105263,0.168421,0.169474
0.013684,0.055789,0.105263,0.168421,0.169474
0.013684,0.053684,0.096842,0.158947,0.153684
0.013684,0.053684,0.096842,0.158947,0.153684
0.013684,0.051579,0.090526,0.148421,0.141053
0.012632,0.049474,0.084211,0.136842,0.131579
0.012632,0.049474,0.084211,0.136842,0.131579
0.011579,0.047368,0.080000,0.125263,0.124211
0.011579,0.047368,0.080000,0.125263,0.124211
0.011579,0.046316,0.076842,0.117895,0.118947
0.011579,0.046316,0.076842,0.117895,0.118947
0.011579,0.045263,0.073684,0.112632,0.115789
0.011579,0.045263,0.073684,0.112632,0.115789
0.011579,0.044211,0.071579,0.109474,0.112632
0.011579,0.044211,0.071579,0.109474,0.112632
0.010526,0.043158,0.070526,0.106316,0.110526
0.010526,0.043158,0.070526,0.106316,0.110526
0.010526,0.042105,0.069474,0.105263,0.110526
0.011579,0.042105,0.069474,0.104211,0.112632
0.011579,0.042105,0.069474,0.104211,0.112632
0.011579,0.042105,0.069474,0.104211,0.116842
0.011579,0.042105,0.069474,0.104211,0.116842
0.010526,0.041053,0.072632,0.109474,0.125263
0.010526,0.041053,0.072632,0.109474,0.125263
0.010526,0.041053,0.080000,0.130526,0.134737
0.010526,0.041053,0.080000,0.130526,0.134737
0.010526,0.041053,0.092632,0.212632,0.149474
0.010526,0.041053,0.092632,0.212632,0.149474
0.010526,0.040000,0.109474,0.333684,0.175789
0.010526,0.040000,0.109474,0.333684,0.175789
0.010526,0.040000,0.146316,0.547368,0.247368
0.010526,0.040000,0.146316,0.547368,0.247368
0.009474,0.040000,0.229474,0.764211,0.389474
0.009474,0.040000,0.229474,0.764211,0.389474
0.010526,0.041053,0.352632,0.871579,0.540000
0.010526,0.041053,0.352632,0.871579,0.540000
0.010526,0.041053,0.453684,0.915789,0.643158
0.010526,0.042105,0.554737,0.947368,0.736842
0.010526,0.042105,0.554737,0.947368,0.736842
0.009474,0.042105,0.683158,0.972632,0.818947
0.009474,0.042105,0.683158,0.972632,0.818947
0.009474,0.042105,0.790526,0.987368,0.872632
0.010526,0.042105,0.850526,0.996842,0.904211
0.010526,0.042105,0.850526,0.996842,0.904211
0.010526,0.042105,0.886316,1.000000,0.924211
0.010526,0.042105,0.886316,1.000000,0.924211
0.010526,0.043158,0.918947,1.000000,0.940000
0.010526,0.043158,0.942105,1.000000,0.944210
0.010526,0.043158,0.942105,1.000000,0.944210
0.010526,0.044211,0.960000,1.000000,0.945263
0.010526,0.044211,0.960000,1.000000,0.945263
0.010526,0.044211,0.970526,1.000000,0.937895
0.010526,0.044211,0.970526,1.000000,0.937895
0.010526,0.046316,0.975789,1.000000,0.926316
0.010526,0.046316,0.975789,1.000000,0.926316
0.011579,0.047368,0.982105,1.000000,0.920000
0.011579,0.047368,0.986316,1.000000,0.918947
0.011579,0.047368,0.986316,1.000000,0.918947
0.012632,0.047368,0.987368,0.997895,0.918947
0.012632,0.047368,0.987368,0.997895,0.918947
0.012632,0.049474,0.988421,0.995789,0.918947
0.012632,0.049474,0.988421,0.995789,0.918947
0.011579,0.050526,0.987368,0.995789,0.920000
0.011579,0.050526,0.987368,0.995789,0.920000
0.011579,0.050526,0.985263,0.992632,0.921053
0.011579,0.050526,0.985263,0.992632,0.921053
0.011579,0.051579,0.983158,0.990526,0.920000
0.011579,0.051579,0.983158,0.990526,0.920000
0.011579,0.051579,0.980000,0.988421,0.920000
0.011579,0.051579,0.980000,0.988421,0.920000
0.011579,0.052632,0.975789,0.987368,0.917895
0.011579,0.052632,0.975789,0.987368,0.917895
0.011579,0.051579,0.972632,0.986316,0.913684
0.011579,0.051579,0.972632,0.986316,0.913684
0.011579,0.052632,0.966316,0.984211,0.910526
0.011579,0.052632,0.958947,0.980000,0.903158
0.011579,0.052632,0.958947,0.980000,0.903158
0.011579,0.053684,0.950526,0.975789,0.887368
0.011579,0.053684,0.950526,0.975789,0.887368
0.011579,0.053684,0.932632,0.964211,0.854737
0.011579,0.053684,0.932632,0.964211,0.854737
0.010526,0.053684,0.898947,0.944210,0.788421
0.010526,0.052632,0.840000,0.910526,0.708421
0.010526,0.051579,0.730526,0.829474,0.597895
0.010526,0.051579,0.730526,0.829474,0.597895
0.010526,0.049474,0.564211,0.651579,0.477895
0.010526,0.049474,0.564211,0.651579,0.477895
0.010526,0.049474,0.422105,0.441053,0.401053
0.010526,0.049474,0.422105,0.441053,0.401053
0.010526,0.048421,0.370526,0.372632,0.365263
0.010526,0.048421,0.370526,0.372632,0.365263
0.011579,0.047368,0.290526,0.283158,0.304211
0.010526,0.045263,0.236842,0.235789,0.257895
0.010526,0.045263,0.236842,0.235789,0.257895
0.009474,0.044211,0.200000,0.209474,0.224211
0.009474,0.044211,0.200000,0.209474,0.224211
0.009474,0.042105,0.173684,0.192632,0.201053
0.009474,0.042105,0.173684,0.192632,0.201053
0.009474,0.040000,0.153684,0.181053,0.181053
0.009474,0.040000,0.153684,0.181053,0.181053
0.008421,0.037895,0.137895,0.171579,0.163158
0.008421,0.037895,0.137895,0.171579,0.163158
0.009474,0.036842,0.125263,0.164211,0.149474
0.009474,0.036842,0.125263,0.164211,0.149474
0.007368,0.034737,0.115789,0.157895,0.140000
0.007368,0.034737,0.115789,0.157895,0.140000
0.007368,0.033684,0.109474,0.152632,0.133684
0.007368,0.033684,0.109474,0.152632,0.133684
0.008421,0.032632,0.104211,0.148421,0.128421
0.008421,0.032632,0.104211,0.148421,0.128421
0.008421,0.031579,0.100000,0.146316,0.125263
0.008421,0.030526,0.096842,0.143158,0.121053
0.008421,0.030526,0.096842,0.143158,0.121053
0.006316,0.030526,0.094737,0.140000,0.118947
0.006316,0.029474,0.092632,0.137895,0.116842
0.006316,0.029474,0.092632,0.137895,0.116842
0.006316,0.029474,0.093684,0.135789,0.116842
0.006316,0.029474,0.093684,0.135789,0.116842
0.006316,0.028421,0.098947,0.133684,0.114737
0.006316,0.028421,0.098947,0.133684,0.114737
0.006316,0.028421,0.114737,0.131579,0.115789
0.006316,0.029474,0.147368,0.131579,0.115789
0.006316,0.029474,0.147368,0.131579,0.115789
0.006316,0.029474,0.200000,0.130526,0.115789
0.006316,0.029474,0.200000,0.130526,0.115789
0.006316,0.030526,0.272632,0.132632,0.116842
0.006316,0.030526,0.272632,0.132632,0.116842
0.007368,0.030526,0.368421,0.147368,0.117895
0.007368,0.030526,0.368421,0.147368,0.117895
0.006316,0.032632,0.500000,0.236842,0.122105
0.007368,0.033684,0.616842,0.385263,0.124211
0.007368,0.033684,0.616842,0.385263,0.124211
0.008421,0.035789,0.693684,0.545263,0.128421
0.008421,0.035789,0.693684,0.545263,0.128421
0.007368,0.038947,0.749474,0.682105,0.134737
0.007368,0.038947,0.749474,0.682105,0.134737
0.007368,0.042105,0.800000,0.776842,0.142105
0.007368,0.042105,0.800000,0.776842,0.142105
0.006316,0.045263,0.845263,0.844211,0.160000
0.007368,0.051579,0.888421,0.893684,0.188421
0.007368,0.051579,0.888421,0.893684,0.188421
0.006316,0.058947,0.915789,0.925263,0.228421
0.006316,0.058947,0.915789,0.925263,0.228421
0.006316,0.072632,0.942105,0.950526,0.284211
0.006316,0.072632,0.942105,0.950526,0.284211
0.006316,0.092632,0.958947,0.968421,0.363158
0.006316,0.092632,0.958947,0.968421,0.363158
0.006316,0.125263,0.974737,0.978947,0.458947
0.006316,0.169474,0.987368,0.989474,0.561053
0.006316,0.225263,0.991579,0.992632,0.647368
0.006316,0.225263,0.991579,0.992632,0.647368
0.006316,0.288421,0.993684,0.995789,0.710526
0.006316,0.288421,0.993684,0.995789,0.710526
0.006316,0.352632,0.995789,0.995789,0.750526
0.006316,0.352632,0.995789,0.995789,0.750526
0.006316,0.417895,0.994737,0.995789,0.776842
0.006316,0.471579,0.991579,0.991579,0.794737
0.006316,0.471579,0.991579,0.991579,0.794737
0.006316,0.503158,0.988421,0.987368,0.801053
0.006316,0.503158,0.988421,0.987368,0.801053
0.007368,0.512632,0.985263,0.983158,0.801053
0.007368,0.512632,0.985263,0.983158,0.801053
0.006316,0.508421,0.982105,0.980000,0.793684
0.006316,0.508421,0.982105,0.980000,0.793684
0.006316,0.505263,0.978947,0.977895,0.788421
0.007368,0.503158,0.977895,0.975789,0.781053
0.007368,0.503158,0.977895,0.975789,0.781053
0.007368,0.495789,0.975789,0.973684,0.773684
0.007368,0.495789,0.975789,0.973684,0.773684
0.007368,0.478947,0.973684,0.970526,0.761053
0.007368,0.478947,0.973684,0.970526,0.761053
0.008421,0.454737,0.971579,0.966316,0.746316
0.008421,0.454737,0.971579,0.966316,0.746316
0.007368,0.422105,0.967368,0.963158,0.725263
0.007368,0.393684,0.963158,0.958947,0.706316
0.007368,0.393684,0.963158,0.958947,0.706316
0.007368,0.361053,0.956842,0.953684,0.676842
0.007368,0.361053,0.956842,0.953684,0.676842
0.007368,0.310526,0.941053,0.938947,0.625263
0.007368,0.310526,0.941053,0.938947,0.625263
0.007368,0.242105,0.907368,0.905263,0.534737
0.007368,0.242105,0.907368,0.905263,0.534737
0.006316,0.194737,0.841053,0.829474,0.442105
0.007368,0.168421,0.721053,0.673684,0.378947
0.006316,0.149474,0.556842,0.473684,0.330526
0.006316,0.149474,0.556842,0.473684,0.330526
0.006316,0.132632,0.417895,0.348421,0.289474
0.006316,0.132632,0.417895,0.348421,0.289474
0.006316,0.120000,0.321053,0.278947,0.255789
0.006316,0.120000,0.321053,0.278947,0.255789
0.005263,0.109474,0.260000,0.238947,0.229474
0.005263,0.109474,0.260000,0.238947,0.229474
0.005263,0.101053,0.221053,0.213684,0.208421
0.004211,0.093684,0.192632,0.194737,0.192632
0.004211,0.093684,0.192632,0.194737,0.192632
0.004211,0.087368,0.172632,0.182105,0.181053
0.004211,0.087368,0.172632,0.182105,0.181053
0.004211,0.083158,0.158947,0.172632,0.170526
0.004211,0.083158,0.158947,0.172632,0.170526
0.003158,0.078947,0.148421,0.165263,0.161053
0.003158,0.078947,0.148421,0.165263,0.161053
0.004211,0.076842,0.141053,0.158947,0.154737
0.003158,0.073684,0.135789,0.154737,0.150526
0.003158,0.073684,0.135789,0.154737,0.150526
0.003158,0.071579,0.131579,0.151579,0.147368
0.003158,0.071579,0.131579,0.151579,0.147368
0.003158,0.070526,0.128421,0.148421,0.145263
0.003158,0.070526,0.128421,0.148421,0.145263
0.003158,0.068421,0.126316,0.146316,0.142105
0.003158,0.068421,0.126316,0.146316,0.142105
0.003158,0.066316,0.124211,0.143158,0.138947
0.002105,0.066316,0.122105,0.141053,0.137895
0.002105,0.066316,0.122105,0.141053,0.137895
0.003158,0.066316,0.121053,0.138947,0.136842
0.003158,0.066316,0.121053,0.138947,0.136842
0.003158,0.065263,0.120000,0.137895,0.135789
0.003158,0.065263,0.120000,0.137895,0.135789
0.003158,0.066316,0.121053,0.135789,0.134737
0.003158,0.066316,0.121053,0.135789,0.134737
0.003158,0.067368,0.123158,0.135789,0.133684
0.004211,0.070526,0.130526,0.134737,0.134737
0.004211,0.070526,0.130526,0.134737,0.134737
0.004211,0.078947,0.147368,0.134737,0.134737
0.004211,0.078947,0.147368,0.134737,0.134737
0.004211,0.106316,0.176842,0.136842,0.135789
0.004211,0.106316,0.176842,0.136842,0.135789
0.004211,0.184211,0.209474,0.143158,0.137895
0.004211,0.184211,0.209474,0.143158,0.137895
0.004211,0.323158,0.246316,0.154737,0.140000
0.005263,0.528421,0.293684,0.174737,0.142105
0.005263,0.528421,0.293684,0.174737,0.142105
0.004211,0.683158,0.348421,0.204211,0.145263
0.004211,0.683158,0.348421,0.204211,0.145263
0.004211,0.791579,0.395789,0.237895,0.148421
0.004211,0.791579,0.395789,0.237895,0.148421
0.004211,0.861053,0.433684,0.266316,0.153684
0.004211,0.861053,0.433684,0.266316,0.153684
0.005263,0.906316,0.467368,0.292632,0.157895
0.004211,0.935789,0.504211,0.329474,0.163158
0.004211,0.935789,0.504211,0.329474,0.163158
0.004211,0.957895,0.554737,0.389474,0.169474
0.004211,0.957895,0.554737,0.389474,0.169474
0.004211,0.969474,0.613684,0.467368,0.177895
0.004211,0.969474,0.613684,0.467368,0.177895
0.004211,0.973684,0.651579,0.527368,0.190526
0.004211,0.973684,0.651579,0.527368,0.190526
0.006316,0.976842,0.688421,0.593684,0.204211
0.007368,0.983158,0.727368,0.661053,0.224211
0.007368,0.983158,0.727368,0.661053,0.224211
0.009474,0.987368,0.762105,0.725263,0.253684
0.009474,0.987368,0.762105,0.725263,0.253684
0.010526,0.987368,0.785263,0.769474,0.291579
0.010526,0.987368,0.785263,0.769474,0.291579
0.011579,0.987368,0.800000,0.792632,0.326316
0.011579,0.987368,0.800000,0.792632,0.326316
0.012632,0.986316,0.807368,0.809474,0.357895
0.012632,0.986316,0.807368,0.809474,0.357895
0.013684,0.986316,0.811579,0.823158,0.391579
0.014737,0.985263,0.812632,0.832632,0.418947
0.014737,0.985263,0.812632,0.832632,0.418947
0.014737,0.985263,0.812632,0.836842,0.443158
0.014737,0.985263,0.812632,0.836842,0.443158
0.014737,0.985263,0.812632,0.836842,0.443158
0.014737,0.984211,0.810526,0.838947,0.456842
0.014737,0.982105,0.806316,0.836842,0.464211
0.014737,0.982105,0.806316,0.836842,0.464211
0.014737,0.977895,0.783158,0.813684,0.449474
0.014737,0.977895,0.783158,0.813684,0.449474
0.015789,0.974737,0.768421,0.794737,0.433684
0.015789,0.974737,0.768421,0.794737,0.433684
0.015789,0.970526,0.749474,0.772632,0.414737
0.015789,0.970526,0.749474,0.772632,0.414737
0.014737,0.967368,0.741053,0.761053,0.404211
0.014737,0.967368,0.741053,0.761053,0.404211
0.014737,0.958947,0.721053,0.726316,0.377895
0.012632,0.942105,0.681053,0.668421,0.348421
0.012632,0.942105,0.681053,0.668421,0.348421
0.011579,0.896842,0.610526,0.582105,0.323158
0.011579,0.896842,0.610526,0.582105,0.323158
0.010526,0.805263,0.505263,0.471579,0.301053
0.010526,0.805263,0.505263,0.471579,0.301053
0.009474,0.645263,0.402105,0.377895,0.281053
0.009474,0.645263,0.402105,0.377895,0.281053
0.008421,0.460000,0.325263,0.314737,0.262105
0.007368,0.329474,0.271579,0.268421,0.243158
0.007368,0.329474,0.271579,0.268421,0.243158
0.006316,0.254737,0.229474,0.232632,0.223158
0.006316,0.254737,0.229474,0.232632,0.223158
0.005263,0.212632,0.198947,0.206316,0.205263
0.005263,0.212632,0.198947,0.206316,0.205263
0.004211,0.186316,0.175789,0.187368,0.190526
0.004211,0.186316,0.175789,0.187368,0.190526
0.002105,0.168421,0.158947,0.173684,0.177895
0.002105,0.168421,0.158947,0.173684,0.177895
0.002105,0.152632,0.147368,0.162105,0.167368
0.000000,0.141053,0.135789,0.152632,0.157895
0.000000,0.141053,0.135789,0.152632,0.157895
0.000000,0.132632,0.127368,0.144211,0.148421
0.000000,0.132632,0.127368,0.144211,0.148421
0.000000,0.125263,0.120000,0.137895,0.141053
0.000000,0.125263,0.120000,0.137895,0.141053
0.000000,0.120000,0.114737,0.132632,0.135789
0.000000,0.116842,0.111579,0.129474,0.131579
0.000000,0.116842,0.111579,0.129474,0.131579
0.000000,0.112632,0.108421,0.125263,0.128421
0.000000,0.112632,0.108421,0.125263,0.128421
0.000000,0.110526,0.105263,0.123158,0.124211
0.000000,0.110526,0.105263,0.123158,0.124211
0.000000,0.107368,0.103158,0.121053,0.122105
0.000000,0.107368,0.103158,0.121053,0.122105
0.000000,0.105263,0.101053,0.118947,0.120000
0.000000,0.104211,0.100000,0.117895,0.117895
0.000000,0.104211,0.100000,0.117895,0.117895
0.000000,0.102105,0.097895,0.114737,0.116842
0.000000,0.102105,0.097895,0.114737,0.116842
0.000000,0.101053,0.096842,0.113684,0.114737
0.000000,0.101053,0.096842,0.113684,0.114737
0.000000,0.098947,0.095789,0.112632,0.112632
0.000000,0.097895,0.093684,0.111579,0.111579
0.006316,0.095789,0.092632,0.109474,0.111579
0.006316,0.095789,0.092632,0.109474,0.111579
0.011579,0.095789,0.092632,0.108421,0.110526
0.011579,0.095789,0.092632,0.108421,0.110526
0.035789,0.093684,0.090526,0.107368,0.108421
0.035789,0.093684,0.090526,0.107368,0.108421
0.116842,0.092632,0.090526,0.106316,0.108421
0.116842,0.092632,0.090526,0.106316,0.108421
0.271579,0.091579,0.089474,0.105263,0.108421
0.426316,0.090526,0.088421,0.105263,0.107368
0.426316,0.090526,0.088421,0.105263,0.107368
0.621053,0.089474,0.087368,0.104211,0.106316
0.621053,0.089474,0.087368,0.104211,0.106316
0.793684,0.089474,0.087368,0.103158,0.106316
0.793684,0.089474,0.087368,0.103158,0.106316
0.914737,0.088421,0.086316,0.102105,0.104211
0.914737,0.088421,0.086316,0.102105,0.104211
0.982105,0.087368,0.086316,0.102105,0.104211
0.982105,0.087368,0.086316,0.102105,0.104211
1.000000,0.086316,0.086316,0.101053,0.103158
1.000000,0.086316,0.086316,0.100000,0.102105
1.000000,0.086316,0.086316,0.100000,0.102105
1.000000,0.085263,0.085263,0.100000,0.102105
1.000000,0.085263,0.085263,0.100000,0.102105
1.000000,0.085263,0.086316,0.098947,0.102105
1.000000,0.085263,0.086316,0.098947,0.102105
1.000000,0.084211,0.086316,0.098947,0.102105
1.000000,0.084211,0.086316,0.098947,0.102105
1.000000,0.083158,0.087368,0.100000,0.101053
1.000000,0.083158,0.088421,0.098947,0.100000
1.000000,0.083158,0.088421,0.098947,0.100000
1.000000,0.082105,0.088421,0.098947,0.100000
1.000000,0.082105,0.088421,0.098947,0.100000
1.000000,0.081053,0.089474,0.097895,0.098947
1.000000,0.081053,0.089474,0.097895,0.098947
1.000000,0.080000,0.089474,0.097895,0.097895
1.000000,0.080000,0.089474,0.097895,0.097895
1.000000,0.080000,0.089474,0.096842,0.097895
1.000000,0.080000,0.090526,0.096842,0.095789
1.000000,0.080000,0.090526,0.096842,0.095789
1.000000,0.078947,0.090526,0.095789,0.094737
1.000000,0.078947,0.090526,0.095789,0.094737
1.000000,0.078947,0.090526,0.095789,0.093684
1.000000,0.078947,0.090526,0.095789,0.093684
1.000000,0.078947,0.090526,0.094737,0.092632
1.000000,0.078947,0.090526,0.094737,0.092632
1.000000,0.078947,0.090526,0.093684,0.089474
1.000000,0.078947,0.090526,0.093684,0.089474
1.000000,0.077895,0.090526,0.093684,0.088421
1.000000,0.077895,0.090526,0.093684,0.088421
1.000000,0.078947,0.090526,0.092632,0.088421
1.000000,0.078947,0.090526,0.092632,0.088421
1.000000,0.077895,0.090526,0.092632,0.087368
1.000000,0.077895,0.090526,0.092632,0.087368
1.000000,0.078947,0.090526,0.091579,0.087368
0.957895,0.078947,0.090526,0.090526,0.087368
0.957895,0.078947,0.090526,0.090526,0.087368
0.868421,0.077895,0.090526,0.090526,0.086316
0.868421,0.077895,0.090526,0.090526,0.086316
0.744210,0.076842,0.089474,0.090526,0.086316
0.744210,0.076842,0.089474,0.090526,0.086316
0.580000,0.074737,0.086316,0.088421,0.085263
0.580000,0.074737,0.086316,0.088421,0.085263
0.394737,0.074737,0.083158,0.085263,0.084211
0.394737,0.074737,0.083158,0.085263,0.084211
0.254737,0.071579,0.080000,0.083158,0.082105
0.254737,0.071579,0.080000,0.083158,0.082105
0.172632,0.070526,0.076842,0.081053,0.081053
0.172632,0.070526,0.076842,0.081053,0.081053
0.129474,0.068421,0.073684,0.077895,0.078947
0.129474,0.068421,0.073684,0.077895,0.078947
0.103158,0.066316,0.070526,0.074737,0.075789
0.103158,0.066316,0.070526,0.074737,0.075789
0.084211,0.064211,0.067368,0.072632,0.073684
0.073684,0.062105,0.064211,0.069474,0.071579
0.073684,0.062105,0.064211,0.069474,0.071579
0.066316,0.061053,0.062105,0.067368,0.068421
0.066316,0.061053,0.062105,0.067368,0.068421
0.058947,0.058947,0.058947,0.066316,0.067368
0.058947,0.058947,0.058947,0.066316,0.067368
0.052632,0.057895,0.057895,0.065263,0.065263
0.048421,0.056842,0.055789,0.064211,0.063158
0.048421,0.056842,0.055789,0.064211,0.063158
0.046316,0.055789,0.053684,0.062105,0.061053
0.043158,0.054737,0.052632,0.061053,0.060000
0.043158,0.054737,0.052632,0.061053,0.060000
0.041053,0.053684,0.051579,0.060000,0.058947
0.041053,0.053684,0.051579,0.060000,0.058947
0.040000,0.052632,0.051579,0.060000,0.056842
0.040000,0.052632,0.051579,0.060000,0.056842
0.037895,0.052632,0.050526,0.058947,0.056842
0.037895,0.052632,0.050526,0.058947,0.056842
0.036842,0.051579,0.049474,0.058947,0.056842
0.035789,0.051579,0.048421,0.057895,0.055789
0.035789,0.051579,0.048421,0.057895,0.055789
0.035789,0.049474,0.048421,0.056842,0.054737
0.035789,0.049474,0.048421,0.056842,0.054737
0.034737,0.050526,0.048421,0.056842,0.054737
0.034737,0.050526,0.048421,0.056842,0.054737
0.034737,0.049474,0.047368,0.056842,0.054737
0.034737,0.049474,0.047368,0.056842,0.054737
0.033684,0.049474,0.047368,0.055789,0.053684
0.033684,0.049474,0.047368,0.055789,0.053684
0.031579,0.048421,0.047368,0.055789,0.053684
0.031579,0.048421,0.047368,0.055789,0.053684
0.031579,0.048421,0.046316,0.054737,0.053684
0.031579,0.048421,0.046316,0.054737,0.053684
0.031579,0.048421,0.046316,0.054737,0.052632
0.031579,0.048421,0.046316,0.054737,0.052632
0.030526,0.047368,0.046316,0.053684,0.052632
0.030526,0.047368,0.046316,0.053684,0.052632
0.029474,0.047368,0.046316,0.054737,0.052632
0.029474,0.047368,0.046316,0.053684,0.052632
0.029474,0.047368,0.046316,0.053684,0.052632
0.029474,0.047368,0.046316,0.053684,0.051579
0.029474,0.047368,0.046316,0.053684,0.051579
0.028421,0.046316,0.045263,0.053684,0.051579
0.028421,0.046316,0.045263,0.053684,0.051579
0.027368,0.046316,0.045263,0.053684,0.051579
0.028421,0.046316,0.045263,0.052632,0.050526
0.026316,0.046316,0.045263,0.052632,0.050526
0.026316,0.046316,0.045263,0.052632,0.050526
0.026316,0.045263,0.045263,0.052632,0.050526
0.026316,0.045263,0.045263,0.052632,0.050526
0.026316,0.045263,0.044211,0.052632,0.050526
0.026316,0.045263,0.044211,0.052632,0.050526
0.026316,0.045263,0.044211,0.052632,0.050526
0.026316,0.045263,0.044211,0.052632,0.050526
0.026316,0.044211,0.044211,0.051579,0.050526
0.025263,0.044211,0.044211,0.051579,0.050526
0.025263,0.044211,0.044211,0.051579,0.050526
0.025263,0.044211,0.043158,0.051579,0.049474
0.025263,0.044211,0.043158,0.051579,0.049474
0.024211,0.044211,0.043158,0.050526,0.049474
0.024211,0.044211,0.043158,0.050526,0.049474
0.024211,0.044211,0.043158,0.051579,0.049474
0.024211,0.044211,0.043158,0.051579,0.049474
0.025263,0.043158,0.043158,0.050526,0.049474
0.024211,0.043158,0.043158,0.050526,0.048421
0.024211,0.043158,0.043158,0.050526,0.048421
0.024211,0.043158,0.043158,0.050526,0.048421
0.024211,0.043158,0.043158,0.050526,0.048421
0.023158,0.043158,0.043158,0.050526,0.048421
0.023158,0.043158,0.043158,0.050526,0.048421
0.023158,0.043158,0.043158,0.049474,0.048421
0.023158,0.043158,0.043158,0.049474,0.048421
0.024211,0.042105,0.043158,0.049474,0.048421
0.023158,0.042105,0.043158,0.049474,0.047368
0.023158,0.042105,0.043158,0.049474,0.047368
0.022105,0.042105,0.042105,0.049474,0.048421
0.022105,0.042105,0.042105,0.049474,0.048421
0.022105,0.042105,0.042105,0.049474,0.048421
0.022105,0.042105,0.042105,0.049474,0.048421
0.022105,0.042105,0.042105,0.049474,0.048421
0.022105,0.042105,0.042105,0.049474,0.047368
0.022105,0.042105,0.042105,0.049474,0.047368
0.022105,0.042105,0.042105,0.048421,0.047368
0.022105,0.042105,0.042105,0.049474,0.047368
0.022105,0.042105,0.042105,0.049474,0.047368
0.021053,0.041053,0.042105,0.048421,0.048421
0.021053,0.041053,0.042105,0.048421,0.048421
0.021053,0.042105,0.042105,0.048421,0.048421
0.021053,0.042105,0.042105,0.048421,0.048421
0.020000,0.041053,0.042105,0.049474,0.048421
0.020000,0.041053,0.042105,0.049474,0.048421
0.022105,0.041053,0.043158,0.048421,0.049474
0.021053,0.041053,0.043158,0.048421,0.050526
0.021053,0.041053,0.043158,0.048421,0.050526
0.021053,0.042105,0.044211,0.048421,0.052632
0.021053,0.042105,0.044211,0.048421,0.052632
0.022105,0.042105,0.045263,0.048421,0.053684
0.022105,0.042105,0.045263,0.048421,0.053684
0.020000,0.042105,0.047368,0.049474,0.056842
0.020000,0.042105,0.047368,0.049474,0.056842
0.021053,0.042105,0.048421,0.049474,0.060000
0.020000,0.041053,0.050526,0.049474,0.063158
0.020000,0.041053,0.050526,0.049474,0.063158
0.020000,0.041053,0.052632,0.050526,0.066316
0.020000,0.041053,0.052632,0.050526,0.066316
0.020000,0.041053,0.058947,0.053684,0.073684
0.020000,0.041053,0.058947,0.053684,0.073684
0.020000,0.042105,0.070526,0.061053,0.085263
0.020000,0.042105,0.070526,0.061053,0.085263
0.020000,0.042105,0.087368,0.074737,0.100000
0.020000,0.042105,0.106316,0.095789,0.116842
0.020000,0.042105,0.106316,0.095789,0.116842
0.020000,0.043158,0.124211,0.120000,0.141053
0.018947,0.042105,0.145263,0.158947,0.184211
0.018947,0.042105,0.145263,0.158947,0.184211
0.020000,0.044211,0.170526,0.233684,0.272632
0.020000,0.044211,0.170526,0.233684,0.272632
0.018947,0.044211,0.193684,0.327368,0.393684
0.020000,0.046316,0.216842,0.430526,0.511579
0.020000,0.046316,0.216842,0.430526,0.511579
0.018947,0.047368,0.236842,0.541053,0.640000
0.018947,0.047368,0.236842,0.541053,0.640000
0.020000,0.048421,0.248421,0.688421,0.778947
0.020000,0.048421,0.248421,0.688421,0.778947
0.020000,0.049474,0.255789,0.817895,0.877895
0.020000,0.049474,0.255789,0.817895,0.877895
0.020000,0.050526,0.263158,0.898947,0.936842
0.020000,0.051579,0.269474,0.936842,0.964211
0.020000,0.051579,0.269474,0.936842,0.964211
0.018947,0.053684,0.281053,0.956842,0.975789
0.018947,0.053684,0.281053,0.956842,0.975789
0.018947,0.053684,0.300000,0.974737,0.986316
0.018947,0.053684,0.300000,0.974737,0.986316
0.017895,0.057895,0.341053,0.992632,0.991579
0.018947,0.060000,0.377895,0.998947,0.988421
0.018947,0.060000,0.377895,0.998947,0.988421
0.020000,0.062105,0.428421,0.998947,0.981053
0.020000,0.062105,0.428421,0.998947,0.981053
0.020000,0.064211,0.498947,0.998947,0.977895
0.020000,0.064211,0.498947,0.998947,0.977895
0.018947,0.066316,0.605263,0.997895,0.975789
0.018947,0.066316,0.605263,0.997895,0.975789
0.018947,0.068421,0.705263,0.996842,0.972632
0.018947,0.068421,0.705263,0.996842,0.972632
0.018947,0.069474,0.757895,0.993684,0.973684
0.018947,0.069474,0.757895,0.993684,0.973684
0.018947,0.071579,0.789474,0.991579,0.971579
0.018947,0.071579,0.789474,0.991579,0.971579
0.018947,0.072632,0.804211,0.990526,0.971579
0.018947,0.072632,0.804211,0.990526,0.971579
0.018947,0.072632,0.808421,0.988421,0.971579
0.017895,0.073684,0.802105,0.986316,0.969474
0.017895,0.074737,0.790526,0.982105,0.968421
0.017895,0.074737,0.790526,0.982105,0.968421
0.017895,0.074737,0.780000,0.981053,0.967368
0.017895,0.074737,0.780000,0.981053,0.967368
0.017895,0.075789,0.763158,0.980000,0.965263
0.017895,0.075789,0.763158,0.980000,0.965263
0.017895,0.075789,0.745263,0.976842,0.962105
0.017895,0.075789,0.745263,0.976842,0.962105
0.016842,0.076842,0.717895,0.970526,0.956842
0.016842,0.076842,0.717895,0.970526,0.956842
0.017895,0.076842,0.678947,0.965263,0.945263
0.016842,0.077895,0.629474,0.951579,0.917895
0.016842,0.077895,0.629474,0.951579,0.917895
0.017895,0.076842,0.567368,0.918947,0.857895
0.017895,0.076842,0.567368,0.918947,0.857895
0.016842,0.076842,0.494737,0.845263,0.754737
0.016842,0.076842,0.494737,0.845263,0.754737
0.017895,0.074737,0.414737,0.698947,0.631579
0.017895,0.074737,0.414737,0.698947,0.631579
0.016842,0.072632,0.342105,0.512632,0.516842
0.016842,0.071579,0.284211,0.385263,0.424211
0.016842,0.071579,0.284211,0.385263,0.424211
0.016842,0.069474,0.234737,0.306316,0.352632
0.016842,0.069474,0.234737,0.306316,0.352632
0.016842,0.067368,0.197895,0.255789,0.300000
0.016842,0.067368,0.197895,0.255789,0.300000
0.016842,0.066316,0.170526,0.221053,0.258947
0.016842,0.066316,0.170526,0.221053,0.258947
0.015789,0.064211,0.149474,0.197895,0.228421
0.015789,0.064211,0.149474,0.197895,0.228421
0.015789,0.061053,0.133684,0.182105,0.205263
0.015789,0.061053,0.133684,0.182105,0.205263
0.015789,0.058947,0.122105,0.169474,0.188421
0.015789,0.058947,0.122105,0.169474,0.188421
0.015789,0.056842,0.111579,0.160000,0.174737
0.015789,0.054737,0.103158,0.152632,0.162105
0.015789,0.054737,0.103158,0.152632,0.162105
0.015789,0.052632,0.096842,0.145263,0.151579
0.015789,0.051579,0.090526,0.141053,0.145263
0.015789,0.051579,0.090526,0.141053,0.145263
0.015789,0.049474,0.087368,0.136842,0.141053
0.015789,0.049474,0.087368,0.136842,0.141053
0.015789,0.048421,0.084211,0.133684,0.136842
0.015789,0.048421,0.084211,0.133684,0.136842
0.014737,0.047368,0.083158,0.131579,0.134737
0.014737,0.047368,0.083158,0.131579,0.134737
0.014737,0.046316,0.080000,0.129474,0.132632
0.015789,0.045263,0.078947,0.127368,0.130526
0.015789,0.045263,0.078947,0.127368,0.130526
0.015789,0.045263,0.077895,0.125263,0.130526
0.015789,0.045263,0.077895,0.125263,0.130526
0.015789,0.044211,0.077895,0.124211,0.130526
0.015789,0.044211,0.077895,0.124211,0.130526
0.015789,0.044211,0.077895,0.123158,0.130526
0.015789,0.044211,0.077895,0.123158,0.130526
0.014737,0.043158,0.080000,0.124211,0.132632
0.015789,0.043158,0.088421,0.147368,0.135789
0.015789,0.043158,0.088421,0.147368,0.135789
0.015789,0.042105,0.108421,0.269474,0.145263
0.015789,0.042105,0.108421,0.269474,0.145263
0.014737,0.042105,0.149474,0.480000,0.171579
0.014737,0.042105,0.149474,0.480000,0.171579
0.014737,0.042105,0.215789,0.702105,0.229474
0.014737,0.042105,0.215789,0.702105,0.229474
0.014737,0.042105,0.315789,0.840000,0.328421
0.014737,0.042105,0.315789,0.840000,0.328421
0.015789,0.042105,0.448421,0.916842,0.454737
0.015789,0.042105,0.448421,0.916842,0.454737
0.015789,0.043158,0.623158,0.963158,0.598947
0.015789,0.042105,0.775789,0.989474,0.747368
0.015789,0.042105,0.775789,0.989474,0.747368
0.015789,0.042105,0.870526,1.000000,0.834737
0.015789,0.042105,0.870526,1.000000,0.834737
0.015789,0.043158,0.924211,1.000000,0.882105
0.015789,0.043158,0.924211,1.000000,0.882105
0.016842,0.043158,0.953684,1.000000,0.904211
0.016842,0.043158,0.975789,1.000000,0.917895
0.016842,0.043158,0.975789,1.000000,0.917895
0.015789,0.044211,0.988421,1.000000,0.927368
0.015789,0.044211,0.988421,1.000000,0.927368
0.015789,0.044211,0.995789,1.000000,0.931579
0.015789,0.044211,0.995789,1.000000,0.931579
0.016842,0.045263,1.000000,1.000000,0.930526
0.016842,0.045263,1.000000,1.000000,0.930526
0.016842,0.045263,1.000000,1.000000,0.928421
0.016842,0.044211,1.000000,1.000000,0.928421
0.016842,0.044211,1.000000,1.000000,0.928421
0.016842,0.046316,1.000000,1.000000,0.928421
0.016842,0.046316,1.000000,1.000000,0.928421
0.016842,0.047368,1.000000,1.000000,0.926316
0.016842,0.047368,1.000000,1.000000,0.926316
0.017895,0.047368,1.000000,1.000000,0.924211
0.017895,0.047368,1.000000,1.000000,0.924211
0.016842,0.048421,1.000000,0.998947,0.924211
0.016842,0.048421,0.996842,0.997895,0.924211
0.016842,0.048421,0.996842,0.997895,0.924211
0.017895,0.049474,0.996842,0.997895,0.924211
0.017895,0.049474,0.996842,0.997895,0.924211
0.016842,0.049474,0.992632,0.995789,0.921053
0.016842,0.049474,0.992632,0.995789,0.921053
0.015789,0.049474,0.989474,0.994737,0.915789
0.015789,0.049474,0.989474,0.994737,0.915789
0.015789,0.049474,0.985263,0.993684,0.912632
0.015789,0.049474,0.985263,0.993684,0.912632
0.015789,0.051579,0.980000,0.992632,0.906316
0.015789,0.051579,0.980000,0.992632,0.906316
0.015789,0.050526,0.973684,0.991579,0.902105
0.015789,0.051579,0.965263,0.988421,0.897895
0.015789,0.051579,0.965263,0.988421,0.897895
0.015789,0.051579,0.947368,0.982105,0.890526
0.015789,0.051579,0.947368,0.982105,0.890526
0.015789,0.050526,0.910526,0.967368,0.877895
0.014737,0.048421,0.832632,0.927368,0.836842
0.014737,0.048421,0.832632,0.927368,0.836842
0.013684,0.047368,0.680000,0.807368,0.718947
0.013684,0.047368,0.680000,0.807368,0.718947
0.013684,0.047368,0.502105,0.568421,0.557895
0.013684,0.047368,0.502105,0.568421,0.557895
0.013684,0.047368,0.377895,0.388421,0.443158
0.013684,0.047368,0.377895,0.388421,0.443158
0.012632,0.045263,0.295789,0.300000,0.351579
0.012632,0.044211,0.244211,0.253684,0.293684
0.012632,0.044211,0.244211,0.253684,0.293684
0.012632,0.043158,0.206316,0.222105,0.252632
0.012632,0.043158,0.206316,0.222105,0.252632
0.012632,0.041053,0.181053,0.203158,0.223158
0.012632,0.041053,0.181053,0.203158,0.223158
0.011579,0.040000,0.164211,0.189474,0.202105
0.011579,0.040000,0.164211,0.189474,0.202105
0.011579,0.037895,0.150526,0.181053,0.186316
0.011579,0.036842,0.140000,0.172632,0.172632
0.011579,0.036842,0.140000,0.172632,0.172632
0.010526,0.033684,0.125263,0.162105,0.154737
0.010526,0.033684,0.125263,0.162105,0.154737
0.009474,0.032632,0.121053,0.157895,0.149474
0.009474,0.032632,0.121053,0.157895,0.149474
0.010526,0.031579,0.117895,0.154737,0.145263
0.010526,0.031579,0.117895,0.154737,0.145263
0.010526,0.030526,0.113684,0.152632,0.143158
0.009474,0.030526,0.111579,0.149474,0.141053
0.009474,0.030526,0.111579,0.149474,0.141053
0.010526,0.029474,0.111579,0.147368,0.138947
0.010526,0.029474,0.111579,0.147368,0.138947
0.009474,0.028421,0.118947,0.144211,0.137895
0.009474,0.028421,0.118947,0.144211,0.137895
0.009474,0.029474,0.150526,0.143158,0.137895
0.009474,0.029474,0.150526,0.143158,0.137895
0.009474,0.029474,0.212632,0.142105,0.136842
0.009474,0.029474,0.308421,0.143158,0.136842
0.009474,0.029474,0.308421,0.143158,0.136842
0.009474,0.030526,0.435789,0.155789,0.137895
0.009474,0.030526,0.435789,0.155789,0.137895
0.009474,0.031579,0.591579,0.252632,0.138947
0.009474,0.031579,0.591579,0.252632,0.138947
0.009474,0.034737,0.730526,0.490526,0.141053
0.009474,0.034737,0.730526,0.490526,0.141053
0.009474,0.037895,0.816842,0.720000,0.147368
0.009474,0.037895,0.816842,0.720000,0.147368
0.009474,0.043158,0.882105,0.846316,0.157895
0.009474,0.043158,0.882105,0.846316,0.157895
0.009474,0.052632,0.928421,0.912632,0.180000
0.009474,0.052632,0.928421,0.912632,0.180000
0.008421,0.070526,0.956842,0.947368,0.212632
0.008421,0.070526,0.956842,0.947368,0.212632
0.008421,0.103158,0.974737,0.968421,0.257895
0.008421,0.103158,0.974737,0.968421,0.257895
0.008421,0.160000,0.985263,0.977895,0.325263
0.008421,0.231579,0.992632,0.986316,0.402105
0.008421,0.231579,0.992632,0.986316,0.402105
0.008421,0.324211,1.000000,0.991579,0.494737
0.008421,0.324211,1.000000,0.991579,0.494737
0.007368,0.440000,1.000000,0.995789,0.583158
0.007368,0.440000,1.000000,0.995789,0.583158
0.008421,0.529474,1.000000,0.996842,0.647368
0.008421,0.529474,1.000000,0.996842,0.647368
0.007368,0.620000,1.000000,0.994737,0.711579
0.007368,0.620000,1.000000,0.994737,0.711579
0.007368,0.652632,1.000000,0.993684,0.733684
0.007368,0.652632,1.000000,0.993684,0.733684
0.007368,0.671579,0.995789,0.989474,0.746316
0.007368,0.671579,0.995789,0.989474,0.746316
0.008421,0.682105,0.991579,0.987368,0.751579
0.008421,0.682105,0.991579,0.987368,0.751579
0.006316,0.686316,0.990526,0.984211,0.755790
0.007368,0.689474,0.986316,0.982105,0.757895
0.007368,0.689474,0.986316,0.982105,0.757895
0.007368,0.688421,0.983158,0.977895,0.755790
0.007368,0.688421,0.983158,0.977895,0.755790
0.007368,0.678947,0.982105,0.977895,0.747368
0.007368,0.678947,0.982105,0.977895,0.747368
0.007368,0.665263,0.980000,0.975789,0.736842
0.007368,0.665263,0.980000,0.975789,0.736842
0.007368,0.650526,0.978947,0.973684,0.723158
0.007368,0.650526,0.978947,0.973684,0.723158
0.006316,0.629474,0.976842,0.971579,0.706316
0.006316,0.629474,0.976842,0.971579,0.706316
0.006316,0.591579,0.974737,0.966316,0.677895
0.006316,0.591579,0.974737,0.966316,0.677895
0.006316,0.518947,0.966316,0.957895,0.632632
0.006316,0.518947,0.966316,0.957895,0.632632
0.006316,0.422105,0.950526,0.943158,0.564211
0.006316,0.422105,0.950526,0.943158,0.564211
0.006316,0.329474,0.920000,0.913684,0.482105
0.006316,0.258947,0.863158,0.850526,0.409474
0.006316,0.258947,0.863158,0.850526,0.409474
0.006316,0.213684,0.758947,0.713684,0.354737
0.006316,0.213684,0.758947,0.713684,0.354737
0.005263,0.182105,0.597895,0.510526,0.315789
0.005263,0.182105,0.597895,0.510526,0.315789
0.005263,0.161053,0.457895,0.372632,0.282105
0.005263,0.161053,0.457895,0.372632,0.282105
0.005263,0.144211,0.366316,0.297895,0.252632
0.006316,0.130526,0.296842,0.251579,0.228421
0.005263,0.118947,0.246316,0.223158,0.209474
0.005263,0.118947,0.246316,0.223158,0.209474
0.005263,0.109474,0.214737,0.203158,0.194737
0.005263,0.109474,0.214737,0.203158,0.194737
0.004211,0.102105,0.191579,0.187368,0.182105
0.004211,0.102105,0.191579,0.187368,0.182105
0.004211,0.095789,0.174737,0.176842,0.171579
0.004211,0.095789,0.174737,0.176842,0.171579
0.003158,0.091579,0.162105,0.167368,0.164211
0.003158,0.086316,0.152632,0.160000,0.157895
0.003158,0.086316,0.152632,0.160000,0.157895
0.002105,0.083158,0.144211,0.154737,0.153684
0.002105,0.083158,0.144211,0.154737,0.153684
0.002105,0.080000,0.140000,0.151579,0.149474
0.002105,0.080000,0.140000,0.151579,0.149474
0.002105,0.078947,0.135789,0.147368,0.146316
0.002105,0.078947,0.135789,0.147368,0.146316
0.002105,0.076842,0.132632,0.145263,0.144211
0.002105,0.075789,0.130526,0.142105,0.141053
0.002105,0.075789,0.130526,0.142105,0.141053
0.002105,0.074737,0.128421,0.141053,0.140000
0.002105,0.073684,0.127368,0.138947,0.138947
0.002105,0.073684,0.127368,0.138947,0.138947
0.001053,0.072632,0.125263,0.136842,0.137895
0.001053,0.072632,0.125263,0.136842,0.137895
0.001053,0.073684,0.125263,0.135789,0.136842
0.001053,0.074737,0.127368,0.134737,0.137895
0.001053,0.074737,0.127368,0.134737,0.137895
0.001053,0.078947,0.130526,0.135789,0.137895
0.001053,0.078947,0.130526,0.135789,0.137895
0.001053,0.105263,0.144211,0.136842,0.138947
0.001053,0.105263,0.144211,0.136842,0.138947
0.001053,0.182105,0.170526,0.143158,0.143158
0.001053,0.286316,0.203158,0.157895,0.147368
0.001053,0.286316,0.203158,0.157895,0.147368
0.001053,0.623158,0.293684,0.203158,0.160000
0.001053,0.623158,0.293684,0.203158,0.160000
0.001053,0.753684,0.347368,0.232632,0.164211
0.001053,0.753684,0.347368,0.232632,0.164211
0.001053,0.841053,0.400000,0.269474,0.170526
0.001053,0.841053,0.400000,0.269474,0.170526
0.001053,0.903158,0.458947,0.322105,0.176842
0.000000,0.950526,0.536842,0.400000,0.184211
0.000000,0.950526,0.536842,0.400000,0.184211
0.001053,0.976842,0.635790,0.520000,0.193684
0.001053,0.976842,0.635790,0.520000,0.193684
0.001053,0.989474,0.715789,0.650526,0.207368
0.001053,0.989474,0.715789,0.650526,0.207368
0.001053,0.993684,0.765263,0.732632,0.228421
0.001053,0.993684,0.765263,0.732632,0.228421
0.002105,0.998947,0.806316,0.801053,0.257895
0.004211,1.000000,0.828421,0.835790,0.302105
0.004211,1.000000,0.828421,0.835790,0.302105
0.006316,0.998947,0.841053,0.857895,0.346316
0.006316,0.998947,0.841053,0.857895,0.346316
0.007368,0.996842,0.846316,0.871579,0.386316
0.007368,0.996842,0.846316,0.871579,0.386316
0.009474,0.993684,0.849474,0.880000,0.421053
0.009474,0.993684,0.849474,0.880000,0.421053
0.010526,0.993684,0.849474,0.884211,0.448421
0.010526,0.990526,0.849474,0.887368,0.468421
0.010526,0.990526,0.849474,0.887368,0.468421
0.011579,0.989474,0.847368,0.888421,0.482105
0.011579,0.989474,0.847368,0.888421,0.482105
0.012632,0.988421,0.845263,0.886316,0.484211
0.012632,0.988421,0.845263,0.886316,0.484211
0.012632,0.985263,0.836842,0.878947,0.482105
0.012632,0.985263,0.836842,0.878947,0.482105
0.012632,0.985263,0.827368,0.872632,0.477895
0.011579,0.983158,0.820000,0.864210,0.472632
0.011579,0.980000,0.809474,0.853684,0.462105
0.011579,0.980000,0.809474,0.853684,0.462105
0.011579,0.975789,0.787368,0.830526,0.440000
0.011579,0.975789,0.787368,0.830526,0.440000
0.010526,0.964211,0.757895,0.790526,0.405263
0.010526,0.964211,0.757895,0.790526,0.405263
0.009474,0.934737,0.710526,0.724211,0.366316
0.009474,0.934737,0.710526,0.724211,0.366316
0.008421,0.862105,0.638947,0.630526,0.334737
0.007368,0.741053,0.550526,0.529474,0.313684
0.007368,0.741053,0.550526,0.529474,0.313684
0.005263,0.583158,0.449474,0.427368,0.293684
0.005263,0.583158,0.449474,0.427368,0.293684
0.004211,0.426316,0.364211,0.348421,0.271579
0.004211,0.426316,0.364211,0.348421,0.271579
0.003158,0.322105,0.301053,0.293684,0.249474
0.003158,0.322105,0.301053,0.293684,0.249474
0.003158,0.256842,0.252632,0.250526,0.229474
0.002105,0.216842,0.216842,0.221053,0.210526
0.002105,0.216842,0.216842,0.221053,0.210526
0.002105,0.187368,0.190526,0.198947,0.192632
0.002105,0.187368,0.190526,0.198947,0.192632
0.000000,0.167368,0.171579,0.182105,0.178947
0.000000,0.167368,0.171579,0.182105,0.178947
0.000000,0.153684,0.155789,0.169474,0.167368
0.000000,0.142105,0.145263,0.160000,0.157895
0.000000,0.133684,0.135789,0.151579,0.151579
0.000000,0.133684,0.135789,0.151579,0.151579
0.000000,0.126316,0.130526,0.145263,0.144211
0.000000,0.126316,0.130526,0.145263,0.144211
0.000000,0.121053,0.125263,0.140000,0.138947
0.000000,0.121053,0.125263,0.140000,0.138947
0.000000,0.117895,0.121053,0.135789,0.134737
0.000000,0.114737,0.117895,0.132632,0.132632
0.000000,0.112632,0.115789,0.130526,0.129474
0.000000,0.112632,0.115789,0.130526,0.129474
0.000000,0.109474,0.113684,0.128421,0.127368
0.000000,0.109474,0.113684,0.128421,0.127368
0.000000,0.107368,0.111579,0.125263,0.124211
0.000000,0.107368,0.111579,0.125263,0.124211
0.000000,0.105263,0.110526,0.124211,0.123158
0.000000,0.105263,0.110526,0.124211,0.123158
0.000000,0.104211,0.108421,0.122105,0.121053
0.000000,0.102105,0.107368,0.121053,0.121053
0.000000,0.102105,0.107368,0.121053,0.121053
0.000000,0.101053,0.106316,0.120000,0.120000
0.000000,0.101053,0.106316,0.120000,0.120000
0.000000,0.098947,0.105263,0.117895,0.118947
0.000000,0.098947,0.105263,0.117895,0.118947
0.000000,0.097895,0.105263,0.116842,0.117895
0.000000,0.097895,0.105263,0.116842,0.117895
0.006316,0.096842,0.104211,0.115789,0.117895
0.018947,0.095789,0.102105,0.114737,0.116842
0.018947,0.095789,0.102105,0.114737,0.116842
0.050526,0.093684,0.102105,0.112632,0.116842
0.050526,0.093684,0.102105,0.112632,0.116842
0.144211,0.093684,0.100000,0.111579,0.115789
0.144211,0.093684,0.100000,0.111579,0.115789
0.370526,0.091579,0.100000,0.111579,0.114737
0.370526,0.091579,0.100000,0.111579,0.114737
0.650526,0.090526,0.100000,0.110526,0.114737
0.650526,0.090526,0.100000,0.110526,0.114737
0.850526,0.089474,0.098947,0.109474,0.113684
0.850526,0.089474,0.098947,0.109474,0.113684
0.969474,0.088421,0.098947,0.109474,0.112632
0.969474,0.088421,0.098947,0.109474,0.112632
1.000000,0.087368,0.097895,0.108421,0.112632
1.000000,0.087368,0.097895,0.108421,0.112632
1.000000,0.086316,0.096842,0.107368,0.112632
1.000000,0.086316,0.096842,0.107368,0.112632
1.000000,0.085263,0.097895,0.107368,0.111579
1.000000,0.084211,0.096842,0.106316,0.110526
1.000000,0.083158,0.095789,0.105263,0.110526
1.000000,0.083158,0.095789,0.105263,0.110526
1.000000,0.082105,0.095789,0.105263,0.109474
1.000000,0.082105,0.095789,0.105263,0.109474
1.000000,0.081053,0.095789,0.105263,0.108421
1.000000,0.081053,0.095789,0.105263,0.108421
1.000000,0.081053,0.095789,0.105263,0.108421
1.000000,0.081053,0.095789,0.105263,0.108421
1.000000,0.080000,0.095789,0.104211,0.106316
1.000000,0.080000,0.094737,0.103158,0.105263
1.000000,0.080000,0.094737,0.103158,0.105263
1.000000,0.077895,0.094737,0.104211,0.104211
1.000000,0.077895,0.094737,0.104211,0.104211
1.000000,0.077895,0.093684,0.103158,0.104211
1.000000,0.077895,0.093684,0.103158,0.104211
1.000000,0.076842,0.093684,0.102105,0.102105
1.000000,0.076842,0.093684,0.102105,0.102105
1.000000,0.076842,0.093684,0.102105,0.101053
1.000000,0.075789,0.093684,0.101053,0.101053
1.000000,0.075789,0.093684,0.101053,0.101053
1.000000,0.075789,0.093684,0.100000,0.098947
1.000000,0.075789,0.093684,0.100000,0.098947
1.000000,0.074737,0.093684,0.100000,0.097895
1.000000,0.074737,0.093684,0.100000,0.097895
1.000000,0.074737,0.092632,0.100000,0.096842
1.000000,0.074737,0.092632,0.100000,0.096842
1.000000,0.074737,0.092632,0.100000,0.096842
1.000000,0.074737,0.092632,0.100000,0.096842
1.000000,0.074737,0.092632,0.098947,0.095789
1.000000,0.074737,0.092632,0.098947,0.095789
1.000000,0.074737,0.092632,0.097895,0.095789
1.000000,0.074737,0.092632,0.097895,0.095789
0.962105,0.074737,0.092632,0.096842,0.094737
0.962105,0.074737,0.092632,0.096842,0.094737
0.848421,0.073684,0.090526,0.096842,0.093684
0.669474,0.072632,0.089474,0.094737,0.092632
0.477895,0.072632,0.088421,0.092632,0.091579
0.477895,0.072632,0.088421,0.092632,0.091579
0.305263,0.070526,0.086316,0.090526,0.091579
0.305263,0.070526,0.086316,0.090526,0.091579
0.193684,0.069474,0.084211,0.089474,0.089474
0.193684,0.069474,0.084211,0.089474,0.089474
0.133684,0.067368,0.081053,0.086316,0.087368
0.133684,0.067368,0.081053,0.086316,0.087368
0.104211,0.065263,0.077895,0.083158,0.086316
0.089474,0.064211,0.074737,0.081053,0.084211
0.089474,0.064211,0.074737,0.081053,0.084211
0.077895,0.062105,0.071579,0.077895,0.082105
0.077895,0.062105,0.071579,0.077895,0.082105
0.069474,0.061053,0.068421,0.075789,0.077895
0.069474,0.061053,0.068421,0.075789,0.077895
0.056842,0.057895,0.063158,0.071579,0.072632
0.052632,0.055789,0.061053,0.069474,0.070526
0.052632,0.055789,0.061053,0.069474,0.070526
0.049474,0.055789,0.060000,0.067368,0.069474
0.049474,0.055789,0.060000,0.067368,0.069474
0.046316,0.053684,0.058947,0.067368,0.067368
0.046316,0.053684,0.058947,0.067368,0.067368
0.045263,0.053684,0.057895,0.066316,0.067368
0.045263,0.053684,0.057895,0.066316,0.067368
0.042105,0.052632,0.056842,0.065263,0.065263
0.042105,0.052632,0.056842,0.065263,0.065263
0.042105,0.052632,0.056842,0.065263,0.065263
0.042105,0.052632,0.056842,0.065263,0.065263
0.041053,0.052632,0.055789,0.063158,0.065263
0.041053,0.052632,0.055789,0.063158,0.065263
0.040000,0.051579,0.055789,0.063158,0.065263
0.038947,0.051579,0.055789,0.063158,0.065263
0.037895,0.051579,0.055789,0.063158,0.065263
0.037895,0.051579,0.055789,0.063158,0.065263
0.037895,0.051579,0.055789,0.063158,0.065263
0.036842,0.052632,0.057895,0.062105,0.065263
0.036842,0.052632,0.057895,0.062105,0.065263
0.035789,0.052632,0.057895,0.062105,0.067368
0.035789,0.052632,0.057895,0.062105,0.067368
0.035789,0.051579,0.060000,0.063158,0.071579
0.035789,0.051579,0.060000,0.063158,0.071579
0.034737,0.052632,0.062105,0.063158,0.077895
0.034737,0.052632,0.062105,0.063158,0.077895
0.033684,0.052632,0.065263,0.066316,0.086316
0.033684,0.052632,0.070526,0.071579,0.095789
0.033684,0.052632,0.070526,0.071579,0.095789
0.033684,0.053684,0.075789,0.085263,0.116842
0.033684,0.053684,0.075789,0.085263,0.116842
0.032632,0.054737,0.081053,0.136842,0.176842
0.032632,0.054737,0.081053,0.136842,0.176842
0.032632,0.054737,0.089474,0.294737,0.342105
0.032632,0.054737,0.089474,0.294737,0.342105
0.032632,0.055789,0.098947,0.524211,0.572632
0.032632,0.056842,0.109474,0.686316,0.731579
0.032632,0.056842,0.109474,0.686316,0.731579
0.031579,0.057895,0.120000,0.797895,0.842105
0.031579,0.057895,0.120000,0.797895,0.842105
0.031579,0.058947,0.131579,0.887368,0.917895
0.031579,0.058947,0.131579,0.887368,0.917895
0.030526,0.058947,0.146316,0.936842,0.958947
0.030526,0.058947,0.146316,0.936842,0.958947
0.031579,0.060000,0.162105,0.961053,0.977895
0.031579,0.060000,0.162105,0.961053,0.977895
0.030526,0.061053,0.178947,0.975789,0.987368
0.030526,0.061053,0.178947,0.975789,0.987368
0.030526,0.061053,0.201053,0.986316,0.989474
0.030526,0.061053,0.201053,0.986316,0.989474
0.030526,0.063158,0.236842,0.993684,0.986316
0.030526,0.063158,0.236842,0.993684,0.986316
0.030526,0.064211,0.294737,0.997895,0.978947
0.030526,0.065263,0.332632,0.998947,0.977895
0.030526,0.067368,0.426316,1.000000,0.973684
0.030526,0.067368,0.426316,1.000000,0.973684
0.029474,0.068421,0.510526,1.000000,0.970526
0.029474,0.068421,0.510526,1.000000,0.970526
0.030526,0.069474,0.581053,1.000000,0.967368
0.030526,0.069474,0.581053,1.000000,0.967368
0.029474,0.070526,0.627368,0.997895,0.966316
0.029474,0.070526,0.627368,0.997895,0.966316
0.029474,0.071579,0.657895,0.997895,0.966316
0.029474,0.071579,0.667368,0.996842,0.965263
0.029474,0.071579,0.667368,0.996842,0.965263
0.028421,0.072632,0.652632,0.993684,0.962105
0.028421,0.072632,0.652632,0.993684,0.962105
0.028421,0.072632,0.643158,0.990526,0.958947
0.028421,0.072632,0.643158,0.990526,0.958947
0.028421,0.073684,0.633684,0.989474,0.957895
0.028421,0.073684,0.633684,0.989474,0.957895
0.027368,0.074737,0.624211,0.987368,0.956842
0.028421,0.074737,0.609474,0.984211,0.955790
0.028421,0.074737,0.609474,0.984211,0.955790
0.028421,0.074737,0.592632,0.982105,0.953684
0.028421,0.074737,0.592632,0.982105,0.953684
0.028421,0.074737,0.566316,0.976842,0.949474
0.028421,0.074737,0.566316,0.976842,0.949474
0.028421,0.076842,0.526316,0.967368,0.936842
0.028421,0.076842,0.526316,0.967368,0.936842
0.026316,0.074737,0.480000,0.949474,0.904211
0.027368,0.074737,0.430526,0.904211,0.831579
0.027368,0.074737,0.430526,0.904211,0.831579
0.026316,0.074737,0.373684,0.804211,0.723158
0.026316,0.074737,0.373684,0.804211,0.723158
0.027368,0.072632,0.313684,0.616842,0.593684
0.026316,0.070526,0.263158,0.424211,0.463158
0.026316,0.070526,0.263158,0.424211,0.463158
0.027368,0.068421,0.220000,0.317895,0.368421
0.027368,0.068421,0.220000,0.317895,0.368421
0.026316,0.067368,0.185263,0.256842,0.309474
0.026316,0.065263,0.158947,0.220000,0.266316
0.026316,0.065263,0.158947,0.220000,0.266316
0.026316,0.063158,0.140000,0.195789,0.232632
0.026316,0.063158,0.140000,0.195789,0.232632
0.026316,0.061053,0.125263,0.178947,0.209474
0.026316,0.061053,0.125263,0.178947,0.209474
0.026316,0.058947,0.113684,0.167368,0.190526
0.026316,0.058947,0.113684,0.167368,0.190526
0.026316,0.055789,0.105263,0.158947,0.175789
0.026316,0.055789,0.105263,0.158947,0.175789
0.026316,0.053684,0.097895,0.151579,0.164211
0.026316,0.053684,0.097895,0.151579,0.164211
0.025263,0.052632,0.092632,0.147368,0.155789
0.025263,0.052632,0.092632,0.147368,0.155789
0.025263,0.051579,0.088421,0.142105,0.151579
0.025263,0.051579,0.088421,0.142105,0.151579
0.025263,0.049474,0.086316,0.138947,0.147368
0.025263,0.049474,0.086316,0.138947,0.147368
0.024211,0.048421,0.083158,0.136842,0.145263
0.025263,0.047368,0.081053,0.133684,0.142105
0.025263,0.047368,0.081053,0.133684,0.142105
0.024211,0.046316,0.080000,0.131579,0.140000
0.024211,0.046316,0.080000,0.131579,0.140000
0.025263,0.046316,0.077895,0.129474,0.138947
0.025263,0.046316,0.077895,0.129474,0.138947
0.025263,0.044211,0.077895,0.129474,0.137895
0.025263,0.044211,0.077895,0.129474,0.137895
0.025263,0.044211,0.076842,0.128421,0.137895
0.025263,0.044211,0.076842,0.128421,0.138947
0.025263,0.044211,0.076842,0.128421,0.138947
0.025263,0.044211,0.080000,0.133684,0.141053
0.026316,0.043158,0.086316,0.193684,0.145263
0.026316,0.043158,0.086316,0.193684,0.145263
0.026316,0.043158,0.086316,0.193684,0.145263
0.025263,0.042105,0.105263,0.362105,0.160000
0.024211,0.043158,0.134737,0.532632,0.189474
0.024211,0.042105,0.167368,0.667368,0.229474
0.024211,0.042105,0.167368,0.667368,0.229474
0.024211,0.042105,0.217895,0.794737,0.306316
0.024211,0.042105,0.217895,0.794737,0.306316
0.024211,0.043158,0.332632,0.898947,0.449474
0.024211,0.043158,0.332632,0.898947,0.449474
0.024211,0.043158,0.508421,0.952632,0.630526
0.024211,0.043158,0.508421,0.952632,0.630526
0.025263,0.043158,0.656842,0.975789,0.760000
0.025263,0.043158,0.656842,0.975789,0.760000
0.025263,0.044211,0.763158,0.988421,0.828421
0.025263,0.044211,0.763158,0.988421,0.828421
0.026316,0.044211,0.847368,1.000000,0.875789
0.026316,0.044211,0.847368,1.000000,0.875789
0.026316,0.045263,0.904211,1.000000,0.905263
0.026316,0.045263,0.904211,1.000000,0.905263
0.026316,0.046316,0.942105,1.000000,0.922105
0.026316,0.046316,0.942105,1.000000,0.922105
0.026316,0.047368,0.963158,1.000000,0.931579
0.026316,0.047368,0.980000,1.000000,0.932632
0.026316,0.047368,0.980000,1.000000,0.932632
0.026316,0.048421,0.989474,1.000000,0.930526
0.026316,0.048421,0.989474,1.000000,0.930526
0.027368,0.049474,0.998947,1.000000,0.924211
0.027368,0.049474,0.998947,1.000000,0.924211
0.027368,0.051579,1.000000,1.000000,0.920000
0.027368,0.051579,1.000000,1.000000,0.920000
0.027368,0.052632,1.000000,1.000000,0.918947
0.027368,0.053684,1.000000,1.000000,0.917895
0.027368,0.053684,1.000000,1.000000,0.917895
0.027368,0.054737,1.000000,1.000000,0.917895
0.027368,0.054737,1.000000,1.000000,0.917895
0.027368,0.055789,1.000000,0.996842,0.916842
0.027368,0.056842,1.000000,0.994737,0.915789
0.027368,0.056842,1.000000,0.994737,0.915789
0.027368,0.057895,0.998947,0.993684,0.914737
0.027368,0.057895,0.998947,0.993684,0.914737
0.027368,0.058947,0.993684,0.992632,0.910526
0.026316,0.060000,0.989474,0.990526,0.907368
0.026316,0.060000,0.989474,0.990526,0.907368
0.026316,0.061053,0.986316,0.988421,0.903158
0.026316,0.061053,0.986316,0.988421,0.903158
0.026316,0.061053,0.981053,0.985263,0.900000
0.026316,0.061053,0.981053,0.985263,0.900000
0.025263,0.063158,0.974737,0.983158,0.897895
0.025263,0.063158,0.974737,0.983158,0.897895
0.026316,0.063158,0.963158,0.980000,0.889474
0.026316,0.064211,0.944210,0.973684,0.872632
0.026316,0.064211,0.944210,0.973684,0.872632
0.026316,0.063158,0.907368,0.960000,0.853684
0.026316,0.063158,0.907368,0.960000,0.853684
0.025263,0.062105,0.842105,0.925263,0.824211
0.025263,0.062105,0.842105,0.925263,0.824211
0.025263,0.061053,0.731579,0.834737,0.723158
0.025263,0.061053,0.731579,0.834737,0.723158
0.024211,0.058947,0.568421,0.640000,0.573684
0.024211,0.058947,0.432632,0.433684,0.460000
0.024211,0.058947,0.432632,0.433684,0.460000
0.024211,0.055789,0.338947,0.324211,0.375789
0.024211,0.055789,0.338947,0.324211,0.375789
0.024211,0.055789,0.272632,0.265263,0.314737
0.024211,0.055789,0.272632,0.265263,0.314737
0.024211,0.053684,0.228421,0.230526,0.271579
0.024211,0.053684,0.228421,0.230526,0.271579
0.023158,0.052632,0.197895,0.207368,0.240000
0.023158,0.050526,0.176842,0.192632,0.216842
0.023158,0.050526,0.176842,0.192632,0.216842
0.022105,0.048421,0.160000,0.182105,0.198947
0.022105,0.048421,0.160000,0.182105,0.198947
0.021053,0.046316,0.148421,0.173684,0.186316
0.021053,0.044211,0.140000,0.168421,0.177895
0.021053,0.044211,0.140000,0.168421,0.177895
0.021053,0.043158,0.133684,0.163158,0.170526
0.020000,0.042105,0.128421,0.158947,0.165263
0.020000,0.042105,0.128421,0.158947,0.165263
0.021053,0.041053,0.124211,0.155789,0.161053
0.021053,0.041053,0.124211,0.155789,0.161053
0.020000,0.040000,0.121053,0.152632,0.157895
0.020000,0.040000,0.121053,0.152632,0.157895
0.021053,0.040000,0.117895,0.150526,0.154737
0.021053,0.040000,0.117895,0.150526,0.154737
0.020000,0.038947,0.115789,0.147368,0.152632
0.020000,0.037895,0.114737,0.146316,0.151579
0.020000,0.037895,0.114737,0.146316,0.151579
0.020000,0.037895,0.114737,0.143158,0.149474
0.020000,0.037895,0.114737,0.143158,0.149474
0.020000,0.036842,0.121053,0.141053,0.149474
0.020000,0.036842,0.121053,0.141053,0.149474
0.021053,0.036842,0.142105,0.140000,0.147368
0.021053,0.036842,0.142105,0.140000,0.147368
0.020000,0.037895,0.191579,0.138947,0.147368
0.020000,0.037895,0.256842,0.138947,0.147368
0.020000,0.037895,0.256842,0.138947,0.147368
0.020000,0.037895,0.328421,0.138947,0.146316
0.020000,0.037895,0.328421,0.138947,0.146316
0.020000,0.038947,0.418947,0.143158,0.146316
0.020000,0.038947,0.418947,0.143158,0.146316
0.020000,0.040000,0.531579,0.177895,0.146316
0.020000,0.040000,0.531579,0.177895,0.146316
0.020000,0.043158,0.649474,0.281053,0.146316
0.020000,0.048421,0.754737,0.470526,0.147368
0.020000,0.048421,0.754737,0.470526,0.147368
0.020000,0.055789,0.828421,0.665263,0.148421
0.020000,0.055789,0.828421,0.665263,0.148421
0.020000,0.066316,0.881053,0.792632,0.152632
0.020000,0.066316,0.881053,0.792632,0.152632
0.020000,0.078947,0.915789,0.856842,0.156842
0.020000,0.078947,0.915789,0.856842,0.156842
0.020000,0.093684,0.941053,0.900000,0.163158
0.020000,0.122105,0.966316,0.935789,0.178947
0.018947,0.142105,0.973684,0.947368,0.195789
0.018947,0.142105,0.973684,0.947368,0.195789
0.018947,0.190526,0.985263,0.963158,0.241053
0.018947,0.190526,0.985263,0.963158,0.241053
0.018947,0.248421,0.992632,0.972632,0.294737
0.018947,0.248421,0.992632,0.972632,0.294737
0.018947,0.321053,1.000000,0.982105,0.367368
0.018947,0.321053,1.000000,0.982105,0.367368
0.018947,0.401053,1.000000,0.986316,0.449474
0.018947,0.470526,1.000000,0.988421,0.526316
0.018947,0.470526,1.000000,0.988421,0.526316
0.017895,0.523158,1.000000,0.988421,0.591579
0.017895,0.523158,1.000000,0.988421,0.591579
0.017895,0.573684,1.000000,0.986316,0.641053
0.017895,0.573684,1.000000,0.986316,0.641053
0.017895,0.608421,0.997895,0.984211,0.673684
0.017895,0.608421,0.997895,0.984211,0.673684
0.017895,0.629474,0.994737,0.981053,0.693684
0.017895,0.629474,0.994737,0.981053,0.693684
0.017895,0.641053,0.992632,0.978947,0.700000
0.017895,0.641053,0.992632,0.978947,0.700000
0.017895,0.642105,0.990526,0.974737,0.696842
0.017895,0.642105,0.990526,0.974737,0.696842
0.017895,0.638947,0.988421,0.973684,0.690526
0.017895,0.638947,0.988421,0.973684,0.690526
0.016842,0.630526,0.985263,0.970526,0.686316
0.016842,0.630526,0.985263,0.970526,0.686316
0.017895,0.622105,0.986316,0.968421,0.674737
0.017895,0.602105,0.983158,0.964211,0.656842
0.017895,0.602105,0.983158,0.964211,0.656842
0.016842,0.568421,0.981053,0.958947,0.630526
0.016842,0.502105,0.973684,0.949474,0.585263
0.016842,0.502105,0.973684,0.949474,0.585263
0.016842,0.410526,0.960000,0.931579,0.518947
0.016842,0.410526,0.960000,0.931579,0.518947
0.015789,0.328421,0.933684,0.903158,0.444211
0.015789,0.265263,0.884211,0.846316,0.382105
0.015789,0.265263,0.884211,0.846316,0.382105
0.015789,0.222105,0.789474,0.732632,0.334737
0.015789,0.222105,0.789474,0.732632,0.334737
0.015789,0.191579,0.638947,0.562105,0.298947
0.015789,0.191579,0.638947,0.562105,0.298947
0.015789,0.169474,0.488421,0.407368,0.270526
0.015789,0.169474,0.488421,0.407368,0.270526
0.015789,0.151579,0.382105,0.316842,0.248421
0.015789,0.137895,0.304211,0.261053,0.228421
0.015789,0.137895,0.304211,0.261053,0.228421
0.014737,0.126316,0.252632,0.226316,0.211579
0.014737,0.126316,0.252632,0.226316,0.211579
0.013684,0.115789,0.218947,0.204211,0.197895
0.013684,0.115789,0.218947,0.204211,0.197895
0.014737,0.107368,0.196842,0.187368,0.186316
0.014737,0.107368,0.196842,0.187368,0.186316
0.013684,0.100000,0.180000,0.175789,0.176842
0.013684,0.100000,0.180000,0.175789,0.176842
0.013684,0.094737,0.167368,0.166316,0.167368
0.013684,0.094737,0.167368,0.166316,0.167368
0.012632,0.090526,0.158947,0.160000,0.162105
0.012632,0.090526,0.158947,0.160000,0.162105
0.012632,0.087368,0.152632,0.154737,0.156842
0.012632,0.087368,0.152632,0.154737,0.156842
0.012632,0.085263,0.148421,0.150526,0.153684
0.012632,0.085263,0.148421,0.150526,0.153684
0.011579,0.083158,0.144211,0.147368,0.151579
0.011579,0.082105,0.141053,0.145263,0.148421
0.010526,0.080000,0.138947,0.142105,0.146316
0.010526,0.080000,0.138947,0.142105,0.146316
0.010526,0.080000,0.136842,0.140000,0.145263
0.010526,0.080000,0.136842,0.140000,0.145263
0.009474,0.078947,0.135789,0.137895,0.143158
0.009474,0.078947,0.135789,0.137895,0.143158
0.010526,0.078947,0.134737,0.135789,0.141053
0.010526,0.078947,0.134737,0.135789,0.141053
0.010526,0.080000,0.135789,0.134737,0.140000
0.009474,0.081053,0.141053,0.133684,0.140000
0.009474,0.081053,0.141053,0.133684,0.140000
0.010526,0.084211,0.150526,0.132632,0.140000
0.010526,0.084211,0.150526,0.132632,0.140000
0.010526,0.093684,0.160000,0.132632,0.138947
0.010526,0.093684,0.160000,0.132632,0.138947
0.010526,0.118947,0.172632,0.132632,0.138947
0.010526,0.118947,0.172632,0.132632,0.138947
0.010526,0.181053,0.188421,0.133684,0.138947
0.010526,0.256842,0.202105,0.134737,0.138947
0.010526,0.256842,0.202105,0.134737,0.138947
0.010526,0.336842,0.213684,0.138947,0.138947
0.010526,0.336842,0.213684,0.138947,0.138947
0.010526,0.492632,0.233684,0.145263,0.138947
0.010526,0.492632,0.233684,0.145263,0.138947
0.009474,0.674737,0.266316,0.160000,0.140000
0.009474,0.674737,0.266316,0.160000,0.140000
0.010526,0.804211,0.303158,0.186316,0.141053
0.010526,0.804211,0.303158,0.186316,0.141053
0.009474,0.875789,0.340000,0.220000,0.141053
0.009474,0.875789,0.340000,0.220000,0.141053
0.009474,0.922105,0.378947,0.262105,0.142105
0.009474,0.922105,0.378947,0.262105,0.142105
0.009474,0.951579,0.435789,0.335790,0.143158
0.009474,0.951579,0.435789,0.335790,0.143158
0.009474,0.974737,0.517895,0.460000,0.145263
0.009474,0.974737,0.517895,0.460000,0.145263
0.009474,0.996842,0.682105,0.705263,0.151579
0.009474,0.996842,0.682105,0.705263,0.151579
0.010526,1.000000,0.729474,0.768421,0.160000
0.010526,1.000000,0.729474,0.768421,0.160000
0.010526,1.000000,0.762105,0.808421,0.171579
0.010526,1.000000,0.762105,0.808421,0.171579
0.012632,1.000000,0.789474,0.837895,0.189474
0.012632,1.000000,0.789474,0.837895,0.189474
0.013684,1.000000,0.805263,0.854737,0.209474
0.013684,0.996842,0.814737,0.864210,0.231579
0.013684,0.996842,0.814737,0.864210,0.231579
0.015789,0.996842,0.820000,0.871579,0.252632
0.015789,0.996842,0.820000,0.871579,0.252632
0.016842,0.995789,0.821053,0.873684,0.270526
0.016842,0.995789,0.821053,0.873684,0.270526
0.015789,0.992632,0.811579,0.866316,0.280000
0.015789,0.992632,0.811579,0.866316,0.280000
0.016842,0.990526,0.792632,0.850526,0.280000
0.016842,0.985263,0.766316,0.827368,0.271579
0.016842,0.985263,0.766316,0.827368,0.271579
0.015789,0.980000,0.737895,0.796842,0.258947
0.015789,0.980000,0.737895,0.796842,0.258947
0.014737,0.967368,0.700000,0.752632,0.244211
0.014737,0.967368,0.700000,0.752632,0.244211
0.013684,0.942105,0.631579,0.683158,0.228421
0.013684,0.942105,0.631579,0.683158,0.228421
0.012632,0.880000,0.534737,0.577895,0.214737
0.012632,0.880000,0.534737,0.577895,0.214737
0.011579,0.751579,0.431579,0.465263,0.202105
0.011579,0.751579,0.431579,0.465263,0.202105
0.011579,0.560000,0.348421,0.373684,0.190526
0.011579,0.560000,0.348421,0.373684,0.190526
0.010526,0.391579,0.286316,0.308421,0.182105
0.010526,0.391579,0.286316,0.308421,0.182105
0.009474,0.293684,0.244211,0.263158,0.173684
0.009474,0.293684,0.244211,0.263158,0.173684
0.010526,0.241053,0.211579,0.228421,0.164211
0.009474,0.208421,0.188421,0.204211,0.157895
0.009474,0.185263,0.170526,0.187368,0.150526
0.009474,0.185263,0.170526,0.187368,0.150526
0.008421,0.168421,0.157895,0.173684,0.145263
0.008421,0.168421,0.157895,0.173684,0.145263
0.007368,0.153684,0.147368,0.162105,0.138947
0.007368,0.153684,0.147368,0.162105,0.138947
0.007368,0.143158,0.137895,0.154737,0.134737
0.007368,0.143158,0.137895,0.154737,0.134737
0.007368,0.135789,0.132632,0.147368,0.131579
0.006316,0.129474,0.128421,0.143158,0.128421
0.006316,0.129474,0.128421,0.143158,0.128421
0.005263,0.125263,0.124211,0.138947,0.126316
0.005263,0.125263,0.124211,0.138947,0.126316
0.005263,0.121053,0.121053,0.135789,0.124211
0.005263,0.121053,0.121053,0.135789,0.124211
0.005263,0.118947,0.118947,0.133684,0.121053
0.005263,0.118947,0.118947,0.133684,0.121053
0.004211,0.116842,0.116842,0.130526,0.121053
0.004211,0.114737,0.114737,0.128421,0.117895
0.004211,0.114737,0.114737,0.128421,0.117895
0.004211,0.111579,0.113684,0.127368,0.116842
0.004211,0.111579,0.113684,0.127368,0.116842
0.005263,0.110526,0.111579,0.125263,0.115789
0.005263,0.110526,0.111579,0.125263,0.115789
0.011579,0.109474,0.110526,0.123158,0.114737
0.011579,0.109474,0.110526,0.123158,0.114737
0.020000,0.107368,0.109474,0.122105,0.113684
0.044211,0.106316,0.108421,0.121053,0.112632
0.044211,0.106316,0.108421,0.121053,0.112632
0.094737,0.105263,0.107368,0.120000,0.111579
0.094737,0.105263,0.107368,0.120000,0.111579
0.173684,0.104211,0.106316,0.118947,0.111579
0.173684,0.104211,0.106316,0.118947,0.111579
0.495789,0.102105,0.104211,0.115789,0.110526
0.662105,0.101053,0.103158,0.115789,0.109474
0.662105,0.101053,0.103158,0.115789,0.109474
0.769474,0.098947,0.102105,0.114737,0.108421
0.856842,0.097895,0.102105,0.113684,0.107368
0.926316,0.096842,0.101053,0.112632,0.107368
0.926316,0.096842,0.101053,0.112632,0.107368
0.969474,0.096842,0.101053,0.112632,0.106316
0.969474,0.096842,0.101053,0.112632,0.106316
1.000000,0.095789,0.101053,0.111579,0.106316
1.000000,0.095789,0.101053,0.111579,0.106316
1.000000,0.094737,0.101053,0.111579,0.105263
1.000000,0.094737,0.101053,0.111579,0.105263
1.000000,0.093684,0.100000,0.110526,0.106316
1.000000,0.093684,0.100000,0.110526,0.106316
1.000000,0.093684,0.098947,0.109474,0.105263
1.000000,0.093684,0.098947,0.109474,0.105263
1.000000,0.092632,0.098947,0.109474,0.104211
1.000000,0.091579,0.097895,0.108421,0.103158
1.000000,0.091579,0.097895,0.108421,0.103158
1.000000,0.091579,0.096842,0.107368,0.102105
1.000000,0.091579,0.096842,0.107368,0.102105
1.000000,0.090526,0.096842,0.106316,0.102105
1.000000,0.090526,0.096842,0.106316,0.102105
1.000000,0.089474,0.095789,0.106316,0.100000
1.000000,0.089474,0.095789,0.106316,0.100000
1.000000,0.089474,0.094737,0.104211,0.098947
1.000000,0.087368,0.093684,0.104211,0.097895
1.000000,0.087368,0.093684,0.104211,0.097895
1.000000,0.088421,0.093684,0.102105,0.095789
1.000000,0.088421,0.093684,0.102105,0.095789
1.000000,0.087368,0.093684,0.100000,0.094737
1.000000,0.087368,0.093684,0.100000,0.094737
1.000000,0.086316,0.092632,0.100000,0.093684
1.000000,0.086316,0.092632,0.100000,0.093684
1.000000,0.086316,0.092632,0.098947,0.092632
1.000000,0.085263,0.092632,0.096842,0.090526
1.000000,0.085263,0.092632,0.094737,0.088421
1.000000,0.085263,0.092632,0.094737,0.088421
1.000000,0.085263,0.091579,0.093684,0.087368
1.000000,0.085263,0.091579,0.093684,0.087368
1.000000,0.084211,0.092632,0.091579,0.086316
1.000000,0.084211,0.092632,0.091579,0.086316
1.000000,0.084211,0.092632,0.090526,0.085263
1.000000,0.084211,0.091579,0.089474,0.084211
1.000000,0.084211,0.091579,0.089474,0.084211
0.993684,0.084211,0.091579,0.088421,0.083158
0.993684,0.084211,0.091579,0.088421,0.083158
0.942105,0.083158,0.091579,0.088421,0.082105
0.942105,0.083158,0.091579,0.088421,0.082105
0.858947,0.083158,0.090526,0.087368,0.081053
0.858947,0.083158,0.090526,0.087368,0.081053
0.754737,0.082105,0.089474,0.086316,0.081053
0.754737,0.082105,0.089474,0.086316,0.081053
0.631579,0.082105,0.089474,0.086316,0.081053
0.494737,0.081053,0.088421,0.085263,0.080000
0.494737,0.081053,0.088421,0.085263,0.080000
0.352632,0.078947,0.087368,0.084211,0.078947
0.352632,0.078947,0.087368,0.084211,0.078947
0.253684,0.077895,0.086316,0.083158,0.078947
0.253684,0.077895,0.086316,0.083158,0.078947
0.188421,0.075789,0.085263,0.082105,0.077895
0.188421,0.075789,0.085263,0.082105,0.077895
0.148421,0.074737,0.085263,0.081053,0.076842
0.123158,0.072632,0.084211,0.080000,0.076842
0.123158,0.072632,0.084211,0.080000,0.076842
0.106316,0.072632,0.084211,0.078947,0.075789
0.106316,0.072632,0.084211,0.078947,0.075789
0.095789,0.071579,0.084211,0.078947,0.075789
0.095789,0.071579,0.084211,0.078947,0.075789
0.086316,0.071579,0.084211,0.076842,0.075789
0.086316,0.071579,0.084211,0.076842,0.075789
0.072632,0.070526,0.085263,0.075789,0.075789
0.072632,0.070526,0.085263,0.075789,0.075789
0.068421,0.070526,0.085263,0.075789,0.075789
0.068421,0.070526,0.085263,0.075789,0.075789
0.064211,0.069474,0.086316,0.074737,0.076842
0.064211,0.069474,0.086316,0.074737,0.076842
0.061053,0.070526,0.086316,0.074737,0.076842
0.061053,0.070526,0.086316,0.074737,0.076842
0.058947,0.070526,0.087368,0.074737,0.078947
0.058947,0.070526,0.087368,0.074737,0.078947
0.055789,0.069474,0.087368,0.073684,0.078947
0.055789,0.069474,0.087368,0.073684,0.078947
0.053684,0.070526,0.087368,0.073684,0.078947
0.053684,0.070526,0.087368,0.073684,0.078947
0.052632,0.070526,0.087368,0.072632,0.078947
0.052632,0.070526,0.087368,0.072632,0.078947
0.051579,0.069474,0.086316,0.073684,0.080000
0.050526,0.069474,0.087368,0.073684,0.078947
0.050526,0.069474,0.087368,0.073684,0.078947
0.050526,0.069474,0.087368,0.072632,0.078947
0.050526,0.069474,0.087368,0.072632,0.078947
0.048421,0.068421,0.087368,0.072632,0.080000
0.048421,0.068421,0.087368,0.072632,0.080000
0.048421,0.069474,0.087368,0.072632,0.080000
0.048421,0.069474,0.087368,0.072632,0.080000
0.048421,0.069474,0.087368,0.072632,0.081053
0.046316,0.069474,0.088421,0.072632,0.083158
0.046316,0.069474,0.088421,0.072632,0.083158
0.045263,0.069474,0.089474,0.073684,0.084211
0.045263,0.069474,0.089474,0.073684,0.084211
0.045263,0.070526,0.091579,0.075789,0.086316
0.045263,0.070526,0.091579,0.075789,0.086316
0.045263,0.070526,0.093684,0.078947,0.090526
0.045263,0.070526,0.093684,0.078947,0.090526
0.044211,0.070526,0.096842,0.083158,0.096842
0.044211,0.071579,0.101053,0.092632,0.110526
0.043158,0.072632,0.105263,0.109474,0.137895
0.043158,0.072632,0.105263,0.109474,0.137895
0.044211,0.073684,0.110526,0.150526,0.186316
0.044211,0.073684,0.110526,0.150526,0.186316
0.043158,0.073684,0.116842,0.228421,0.270526
0.043158,0.073684,0.116842,0.228421,0.270526
0.042105,0.074737,0.126316,0.351579,0.406316
0.042105,0.074737,0.126316,0.351579,0.406316
0.042105,0.074737,0.137895,0.497895,0.553684
0.042105,0.074737,0.148421,0.623158,0.676842
0.042105,0.074737,0.148421,0.623158,0.676842
0.040000,0.074737,0.162105,0.734737,0.777895
0.040000,0.074737,0.162105,0.734737,0.777895
0.041053,0.075789,0.174737,0.823158,0.854737
0.041053,0.075789,0.174737,0.823158,0.854737
0.041053,0.076842,0.190526,0.882105,0.908421
0.041053,0.076842,0.190526,0.882105,0.908421
0.040000,0.076842,0.208421,0.924211,0.943158
0.040000,0.077895,0.228421,0.953684,0.967368
0.040000,0.077895,0.228421,0.953684,0.967368
0.040000,0.078947,0.255789,0.971579,0.974737
0.040000,0.078947,0.255789,0.971579,0.974737
0.040000,0.080000,0.294737,0.982105,0.980000
0.040000,0.080000,0.294737,0.982105,0.980000
0.038947,0.082105,0.342105,0.989474,0.975789
0.038947,0.082105,0.342105,0.989474,0.975789
0.038947,0.082105,0.390526,0.993684,0.969474
0.038947,0.084211,0.440000,0.991579,0.966316
0.038947,0.084211,0.440000,0.991579,0.966316
0.040000,0.085263,0.503158,0.991579,0.964211
0.040000,0.085263,0.503158,0.991579,0.964211
0.037895,0.085263,0.568421,0.989474,0.962105
0.037895,0.085263,0.568421,0.989474,0.962105
0.037895,0.087368,0.621053,0.989474,0.961053
0.036842,0.088421,0.681053,0.987368,0.961053
0.036842,0.088421,0.681053,0.987368,0.961053
0.036842,0.089474,0.677895,0.985263,0.960000
0.036842,0.089474,0.677895,0.985263,0.960000
0.037895,0.090526,0.674737,0.983158,0.957895
0.037895,0.090526,0.674737,0.983158,0.957895
0.036842,0.090526,0.665263,0.981053,0.955790
0.036842,0.090526,0.665263,0.981053,0.955790
0.036842,0.091579,0.653684,0.977895,0.954737
0.036842,0.091579,0.640000,0.975789,0.951579
0.036842,0.091579,0.640000,0.975789,0.951579
0.036842,0.092632,0.623158,0.972632,0.949474
0.036842,0.092632,0.623158,0.972632,0.949474
0.036842,0.092632,0.598947,0.967368,0.944210
0.036842,0.092632,0.598947,0.967368,0.944210
0.036842,0.093684,0.569474,0.961053,0.935789
0.036842,0.093684,0.569474,0.961053,0.935789
0.035789,0.093684,0.533684,0.947368,0.909474
0.035789,0.093684,0.533684,0.947368,0.909474
0.035789,0.093684,0.496842,0.917895,0.853684
0.035789,0.093684,0.496842,0.917895,0.853684
0.035789,0.093684,0.453684,0.864210,0.767368
0.035789,0.093684,0.453684,0.864210,0.767368
0.035789,0.092632,0.404211,0.765263,0.685263
0.035789,0.092632,0.404211,0.765263,0.685263
0.035789,0.091579,0.358947,0.632632,0.601053
0.035789,0.091579,0.358947,0.632632,0.601053
0.034737,0.088421,0.313684,0.485263,0.496842
0.034737,0.087368,0.271579,0.375789,0.414737
0.034737,0.087368,0.271579,0.375789,0.414737
0.034737,0.084211,0.232632,0.305263,0.356842
0.034737,0.084211,0.232632,0.305263,0.356842
0.034737,0.084211,0.197895,0.254737,0.310526
0.034737,0.084211,0.197895,0.254737,0.310526
0.034737,0.083158,0.168421,0.220000,0.272632
0.034737,0.083158,0.168421,0.220000,0.272632
0.033684,0.080000,0.148421,0.196842,0.243158
0.033684,0.076842,0.131579,0.180000,0.221053
0.033684,0.074737,0.120000,0.166316,0.203158
0.033684,0.074737,0.120000,0.166316,0.203158
0.032632,0.072632,0.109474,0.156842,0.188421
0.032632,0.072632,0.109474,0.156842,0.188421
0.033684,0.069474,0.102105,0.150526,0.176842
0.033684,0.069474,0.102105,0.150526,0.176842
0.032632,0.067368,0.095789,0.144211,0.168421
0.032632,0.067368,0.095789,0.144211,0.168421
0.031579,0.063158,0.089474,0.136842,0.157895
0.031579,0.063158,0.089474,0.136842,0.157895
0.032632,0.062105,0.086316,0.133684,0.153684
0.032632,0.062105,0.086316,0.133684,0.153684
0.031579,0.061053,0.084211,0.131579,0.151579
0.031579,0.061053,0.084211,0.131579,0.151579
0.031579,0.060000,0.083158,0.129474,0.149474
0.031579,0.060000,0.083158,0.129474,0.149474
0.031579,0.058947,0.081053,0.127368,0.147368
0.031579,0.058947,0.081053,0.127368,0.147368
0.031579,0.058947,0.081053,0.125263,0.146316
0.031579,0.058947,0.081053,0.125263,0.146316
0.031579,0.058947,0.080000,0.124211,0.145263
0.031579,0.058947,0.080000,0.124211,0.145263
0.031579,0.056842,0.080000,0.123158,0.144211
0.031579,0.056842,0.080000,0.123158,0.144211
0.031579,0.056842,0.080000,0.123158,0.145263
0.031579,0.056842,0.080000,0.123158,0.145263
0.030526,0.055789,0.083158,0.123158,0.145263
0.031579,0.055789,0.089474,0.141053,0.148421
0.031579,0.055789,0.089474,0.141053,0.148421
0.030526,0.054737,0.108421,0.260000,0.153684
0.030526,0.054737,0.108421,0.260000,0.153684
0.031579,0.055789,0.150526,0.482105,0.167368
0.030526,0.054737,0.231579,0.718947,0.201053
0.030526,0.054737,0.231579,0.718947,0.201053
0.030526,0.054737,0.368421,0.864210,0.280000
0.029474,0.054737,0.536842,0.931579,0.417895
0.029474,0.054737,0.536842,0.931579,0.417895
0.030526,0.054737,0.685263,0.966316,0.563158
0.030526,0.054737,0.685263,0.966316,0.563158
0.030526,0.054737,0.784211,0.983158,0.677895
0.030526,0.054737,0.784211,0.983158,0.677895
0.030526,0.054737,0.844211,0.995789,0.753684
0.030526,0.054737,0.844211,0.995789,0.753684
0.030526,0.054737,0.892632,1.000000,0.805263
0.030526,0.055789,0.923158,1.000000,0.844211
0.030526,0.055789,0.923158,1.000000,0.844211
0.030526,0.055789,0.944210,1.000000,0.868421
0.030526,0.055789,0.944210,1.000000,0.868421
0.030526,0.055789,0.957895,1.000000,0.883158
0.030526,0.055789,0.957895,1.000000,0.883158
0.030526,0.055789,0.972632,1.000000,0.894737
0.030526,0.055789,0.972632,1.000000,0.894737
0.031579,0.055789,0.983158,1.000000,0.900000
0.031579,0.055789,0.983158,1.000000,0.900000
0.031579,0.056842,0.989474,1.000000,0.897895
0.031579,0.056842,0.989474,1.000000,0.897895
0.032632,0.056842,0.993684,1.000000,0.892632
0.032632,0.056842,0.993684,1.000000,0.892632
0.031579,0.055789,0.994737,1.000000,0.889474
0.031579,0.055789,0.994737,1.000000,0.889474
0.032632,0.056842,0.994737,0.998947,0.889474
0.032632,0.056842,0.994737,0.998947,0.889474
0.032632,0.056842,0.992632,0.996842,0.891579
0.032632,0.055789,0.990526,0.994737,0.892632
0.032632,0.055789,0.990526,0.994737,0.892632
0.032632,0.056842,0.987368,0.992632,0.892632
0.032632,0.056842,0.987368,0.992632,0.892632
0.032632,0.057895,0.983158,0.990526,0.889474
0.031579,0.057895,0.980000,0.989474,0.885263
0.031579,0.057895,0.980000,0.989474,0.885263
0.031579,0.057895,0.974737,0.986316,0.880000
0.031579,0.057895,0.974737,0.986316,0.880000
0.031579,0.058947,0.969474,0.984211,0.874737
0.030526,0.060000,0.964211,0.980000,0.864210
0.030526,0.060000,0.964211,0.980000,0.864210
0.031579,0.061053,0.955790,0.974737,0.850526
0.031579,0.061053,0.955790,0.974737,0.850526
0.030526,0.062105,0.937895,0.964211,0.831579
0.030526,0.062105,0.937895,0.964211,0.831579
0.030526,0.062105,0.906316,0.947368,0.807368
0.030526,0.062105,0.906316,0.947368,0.807368
0.029474,0.062105,0.855789,0.918947,0.770526
0.029474,0.061053,0.772632,0.849474,0.678947
0.029474,0.061053,0.772632,0.849474,0.678947
0.029474,0.061053,0.649474,0.721053,0.555789
0.029474,0.061053,0.649474,0.721053,0.555789
0.028421,0.060000,0.516842,0.549474,0.460000
0.028421,0.060000,0.516842,0.549474,0.460000
0.028421,0.057895,0.408421,0.408421,0.389474
0.028421,0.057895,0.408421,0.408421,0.389474
0.029474,0.055789,0.271579,0.264211,0.296842
0.029474,0.055789,0.271579,0.264211,0.296842
0.028421,0.054737,0.228421,0.229474,0.265263
0.028421,0.054737,0.228421,0.229474,0.265263
0.028421,0.054737,0.197895,0.205263,0.241053
0.028421,0.054737,0.197895,0.205263,0.241053
0.027368,0.052632,0.177895,0.187368,0.222105
0.027368,0.052632,0.177895,0.187368,0.222105
0.027368,0.051579,0.162105,0.175789,0.207368
0.028421,0.049474,0.150526,0.166316,0.195789
0.028421,0.049474,0.150526,0.166316,0.195789
0.027368,0.049474,0.142105,0.160000,0.187368
0.026316,0.047368,0.136842,0.154737,0.181053
0.026316,0.047368,0.136842,0.154737,0.181053
0.026316,0.046316,0.131579,0.150526,0.175789
0.026316,0.046316,0.131579,0.150526,0.175789
0.027368,0.045263,0.128421,0.147368,0.172632
0.026316,0.044211,0.125263,0.144211,0.169474
0.026316,0.044211,0.125263,0.144211,0.169474
0.026316,0.043158,0.123158,0.142105,0.166316
0.026316,0.043158,0.123158,0.142105,0.166316
0.025263,0.042105,0.123158,0.140000,0.164211
0.025263,0.042105,0.123158,0.140000,0.164211
0.026316,0.043158,0.127368,0.137895,0.162105
0.026316,0.043158,0.127368,0.137895,0.162105
0.026316,0.043158,0.143158,0.136842,0.160000
0.026316,0.043158,0.176842,0.135789,0.160000
0.026316,0.043158,0.176842,0.135789,0.160000
0.026316,0.044211,0.241053,0.135789,0.158947
0.026316,0.044211,0.241053,0.135789,0.158947
0.026316,0.044211,0.335790,0.137895,0.160000
0.026316,0.044211,0.335790,0.137895,0.160000
0.026316,0.045263,0.454737,0.172632,0.160000
0.026316,0.045263,0.454737,0.172632,0.160000
0.026316,0.047368,0.571579,0.270526,0.160000
0.025263,0.048421,0.687368,0.433684,0.161053
0.025263,0.048421,0.687368,0.433684,0.161053
0.025263,0.050526,0.775789,0.624211,0.164211
0.025263,0.050526,0.775789,0.624211,0.164211
0.025263,0.053684,0.844211,0.777895,0.166316
0.025263,0.053684,0.844211,0.777895,0.166316
0.026316,0.058947,0.891579,0.857895,0.172632
0.026316,0.058947,0.891579,0.857895,0.172632
0.025263,0.064211,0.926316,0.904211,0.182105
0.025263,0.064211,0.926316,0.904211,0.182105
0.025263,0.072632,0.947368,0.931579,0.196842
0.025263,0.085263,0.963158,0.954737,0.221053
0.025263,0.085263,0.963158,0.954737,0.221053
0.024211,0.104211,0.978947,0.970526,0.260000
0.024211,0.104211,0.978947,0.970526,0.260000
0.025263,0.135789,0.989474,0.984211,0.315789
0.024211,0.177895,0.995789,0.990526,0.387368
0.024211,0.177895,0.995789,0.990526,0.387368
0.024211,0.230526,0.998947,0.993684,0.466316
0.023158,0.304211,1.000000,0.996842,0.544211
0.023158,0.304211,1.000000,0.996842,0.544211
0.024211,0.403158,1.000000,0.997895,0.606316
0.024211,0.403158,1.000000,0.997895,0.606316
0.023158,0.485263,1.000000,0.995789,0.644211
0.023158,0.485263,1.000000,0.995789,0.644211
0.024211,0.529474,0.998947,0.994737,0.668421
0.024211,0.529474,0.998947,0.994737,0.668421
0.023158,0.555789,0.994737,0.989474,0.683158
0.023158,0.570526,0.992632,0.986316,0.689474
0.023158,0.570526,0.992632,0.986316,0.689474
0.023158,0.575790,0.988421,0.983158,0.690526
0.023158,0.575790,0.988421,0.983158,0.690526
0.023158,0.575790,0.988421,0.980000,0.690526
0.023158,0.575790,0.988421,0.980000,0.690526
0.023158,0.573684,0.985263,0.978947,0.688421
0.023158,0.573684,0.985263,0.978947,0.688421
0.023158,0.568421,0.983158,0.976842,0.682105
0.023158,0.564211,0.982105,0.974737,0.672632
0.023158,0.564211,0.982105,0.974737,0.672632
0.023158,0.556842,0.978947,0.972632,0.664210
0.023158,0.556842,0.978947,0.972632,0.664210
0.022105,0.545263,0.978947,0.970526,0.651579
0.022105,0.545263,0.978947,0.970526,0.651579
0.022105,0.525263,0.974737,0.968421,0.635790
0.022105,0.525263,0.974737,0.968421,0.635790
0.023158,0.485263,0.971579,0.962105,0.607368
0.023158,0.425263,0.961053,0.952632,0.565263
0.023158,0.425263,0.961053,0.952632,0.565263
0.022105,0.351579,0.940000,0.935789,0.507368
0.022105,0.351579,0.940000,0.935789,0.507368
0.022105,0.289474,0.904211,0.902105,0.444211
0.022105,0.243158,0.837895,0.832632,0.389474
0.022105,0.243158,0.837895,0.832632,0.389474
0.021053,0.208421,0.724211,0.704211,0.348421
0.021053,0.208421,0.724211,0.704211,0.348421
0.021053,0.186316,0.575790,0.526316,0.311579
0.021053,0.186316,0.575790,0.526316,0.311579
0.021053,0.168421,0.447368,0.390526,0.283158
0.021053,0.168421,0.447368,0.390526,0.283158
0.020000,0.153684,0.356842,0.308421,0.260000
0.020000,0.153684,0.356842,0.308421,0.260000
0.020000,0.142105,0.291579,0.257895,0.238947
0.020000,0.142105,0.291579,0.257895,0.238947
0.021053,0.130526,0.246316,0.228421,0.221053
0.020000,0.123158,0.217895,0.207368,0.206316
0.020000,0.123158,0.217895,0.207368,0.206316
0.020000,0.115789,0.196842,0.191579,0.194737
0.020000,0.115789,0.196842,0.191579,0.194737
0.018947,0.109474,0.181053,0.181053,0.186316
0.018947,0.109474,0.181053,0.181053,0.186316
0.020000,0.105263,0.170526,0.171579,0.177895
0.020000,0.105263,0.170526,0.171579,0.177895
0.020000,0.102105,0.162105,0.164211,0.172632
0.017895,0.097895,0.155789,0.158947,0.167368
0.017895,0.097895,0.155789,0.158947,0.167368
0.018947,0.095789,0.150526,0.154737,0.164211
0.018947,0.095789,0.150526,0.154737,0.164211
0.017895,0.093684,0.147368,0.151579,0.160000
0.017895,0.093684,0.147368,0.151579,0.160000
0.017895,0.091579,0.144211,0.148421,0.157895
0.017895,0.091579,0.144211,0.148421,0.157895
0.017895,0.091579,0.143158,0.147368,0.156842
0.017895,0.089474,0.141053,0.145263,0.154737
0.017895,0.089474,0.141053,0.145263,0.154737
0.017895,0.088421,0.138947,0.143158,0.152632
0.017895,0.088421,0.138947,0.143158,0.152632
0.016842,0.086316,0.136842,0.141053,0.150526
0.017895,0.086316,0.134737,0.140000,0.149474
0.017895,0.086316,0.134737,0.140000,0.149474
0.017895,0.084211,0.133684,0.137895,0.147368
0.017895,0.084211,0.133684,0.137895,0.147368
0.017895,0.085263,0.132632,0.136842,0.146316
0.017895,0.085263,0.132632,0.136842,0.146316
0.017895,0.084211,0.131579,0.135789,0.145263
0.017895,0.084211,0.131579,0.135789,0.145263
0.016842,0.087368,0.131579,0.134737,0.145263
0.016842,0.087368,0.131579,0.134737,0.145263
0.017895,0.097895,0.134737,0.133684,0.143158
0.017895,0.097895,0.134737,0.133684,0.143158
0.017895,0.118947,0.143158,0.133684,0.144211
0.017895,0.118947,0.143158,0.133684,0.144211
0.017895,0.169474,0.158947,0.133684,0.145263
0.016842,0.258947,0.182105,0.135789,0.145263
0.016842,0.258947,0.182105,0.135789,0.145263
0.016842,0.410526,0.209474,0.142105,0.146316
0.016842,0.410526,0.209474,0.142105,0.146316
0.017895,0.567368,0.241053,0.156842,0.147368
0.017895,0.567368,0.241053,0.156842,0.147368
0.016842,0.704211,0.275789,0.182105,0.147368
0.016842,0.704211,0.275789,0.182105,0.147368
0.017895,0.843158,0.323158,0.220000,0.149474
0.016842,0.923158,0.390526,0.281053,0.151579
0.016842,0.923158,0.390526,0.281053,0.151579
0.015789,0.960000,0.450526,0.363158,0.151579
0.015789,0.960000,0.450526,0.363158,0.151579
0.016842,0.980000,0.508421,0.460000,0.154737
0.016842,0.980000,0.508421,0.460000,0.154737
0.016842,0.994737,0.576842,0.576842,0.160000
0.016842,0.994737,0.576842,0.576842,0.160000
0.016842,0.998947,0.647368,0.685263,0.167368
0.017895,1.000000,0.701053,0.757895,0.184211
0.017895,1.000000,0.701053,0.757895,0.184211
0.018947,1.000000,0.744210,0.805263,0.207368
0.020000,1.000000,0.769474,0.834737,0.235789
0.020000,1.000000,0.769474,0.834737,0.235789
0.022105,1.000000,0.786316,0.854737,0.266316
0.022105,1.000000,0.786316,0.854737,0.266316
0.023158,0.998947,0.800000,0.868421,0.292632
0.023158,0.998947,0.800000,0.868421,0.292632
0.025263,0.994737,0.810526,0.876842,0.336842
0.025263,0.994737,0.810526,0.876842,0.336842
0.024211,0.991579,0.809474,0.877895,0.352632
0.024211,0.991579,0.809474,0.877895,0.352632
0.026316,0.990526,0.801053,0.871579,0.358947
0.026316,0.990526,0.801053,0.871579,0.358947
0.025263,0.990526,0.785263,0.856842,0.354737
0.025263,0.985263,0.765263,0.838947,0.346316
0.025263,0.985263,0.765263,0.838947,0.346316
0.025263,0.983158,0.737895,0.817895,0.332632
0.025263,0.983158,0.737895,0.817895,0.332632
0.025263,0.974737,0.708421,0.787368,0.316842
0.025263,0.974737,0.708421,0.787368,0.316842
0.024211,0.957895,0.661053,0.745263,0.295789
0.024211,0.957895,0.661053,0.745263,0.295789
0.022105,0.916842,0.587368,0.667368,0.274737
0.021053,0.827368,0.487368,0.562105,0.256842
0.021053,0.827368,0.487368,0.562105,0.256842
0.021053,0.671579,0.393684,0.449474,0.242105
0.021053,0.671579,0.393684,0.449474,0.242105
0.020000,0.484211,0.326316,0.366316,0.229474
0.020000,0.484211,0.326316,0.366316,0.229474
0.020000,0.345263,0.271579,0.306316,0.216842
0.020000,0.345263,0.271579,0.306316,0.216842
0.018947,0.272632,0.229474,0.261053,0.205263
0.017895,0.231579,0.201053,0.229474,0.194737
0.017895,0.231579,0.201053,0.229474,0.194737
0.017895,0.204211,0.181053,0.206316,0.185263
0.015789,0.185263,0.165263,0.189474,0.175789
0.015789,0.185263,0.165263,0.189474,0.175789
0.015789,0.172632,0.153684,0.175789,0.168421
0.015789,0.172632,0.153684,0.175789,0.168421
0.015789,0.162105,0.145263,0.167368,0.162105
0.015789,0.162105,0.145263,0.167368,0.162105
0.014737,0.154737,0.138947,0.160000,0.156842
0.014737,0.149474,0.133684,0.154737,0.151579
0.014737,0.149474,0.133684,0.154737,0.151579
0.013684,0.145263,0.130526,0.150526,0.149474
0.013684,0.145263,0.130526,0.150526,0.149474
0.013684,0.142105,0.127368,0.147368,0.147368
0.013684,0.142105,0.127368,0.147368,0.147368
0.014737,0.138947,0.125263,0.144211,0.144211
0.014737,0.138947,0.125263,0.144211,0.144211
0.013684,0.135789,0.123158,0.141053,0.141053
0.013684,0.133684,0.121053,0.140000,0.140000
0.013684,0.133684,0.121053,0.140000,0.140000
0.013684,0.131579,0.120000,0.136842,0.138947
0.013684,0.131579,0.120000,0.136842,0.138947
0.013684,0.128421,0.117895,0.135789,0.136842
0.013684,0.128421,0.117895,0.135789,0.136842
0.015789,0.126316,0.116842,0.133684,0.135789
0.015789,0.126316,0.116842,0.133684,0.135789
0.024211,0.125263,0.115789,0.132632,0.133684
0.034737,0.124211,0.114737,0.131579,0.132632
0.034737,0.124211,0.114737,0.131579,0.132632
0.047368,0.122105,0.112632,0.130526,0.131579
0.047368,0.122105,0.112632,0.130526,0.131579
0.075789,0.121053,0.112632,0.129474,0.130526
0.075789,0.121053,0.112632,0.129474,0.130526
0.151579,0.118947,0.111579,0.127368,0.130526
0.151579,0.118947,0.111579,0.127368,0.130526
0.278947,0.117895,0.111579,0.126316,0.129474
0.477895,0.116842,0.109474,0.125263,0.128421
0.650526,0.115789,0.109474,0.125263,0.128421
0.650526,0.115789,0.109474,0.125263,0.128421
0.776842,0.114737,0.107368,0.124211,0.128421
0.776842,0.114737,0.107368,0.124211,0.128421
0.869474,0.113684,0.107368,0.123158,0.128421
0.869474,0.113684,0.107368,0.123158,0.128421
0.935789,0.112632,0.107368,0.123158,0.126316
0.969474,0.112632,0.106316,0.122105,0.126316
0.969474,0.112632,0.106316,0.122105,0.126316
0.997895,0.110526,0.106316,0.121053,0.126316
0.997895,0.110526,0.106316,0.121053,0.126316
1.000000,0.109474,0.105263,0.121053,0.126316
1.000000,0.109474,0.105263,0.121053,0.126316
1.000000,0.108421,0.105263,0.121053,0.126316
1.000000,0.108421,0.105263,0.121053,0.126316
1.000000,0.108421,0.105263,0.120000,0.125263
1.000000,0.108421,0.105263,0.120000,0.125263
1.000000,0.107368,0.105263,0.120000,0.124211
1.000000,0.107368,0.105263,0.120000,0.124211
1.000000,0.106316,0.104211,0.118947,0.122105
1.000000,0.106316,0.104211,0.118947,0.122105
1.000000,0.105263,0.104211,0.117895,0.121053
1.000000,0.105263,0.104211,0.117895,0.121053
1.000000,0.104211,0.105263,0.115789,0.120000
1.000000,0.104211,0.105263,0.115789,0.120000
1.000000,0.103158,0.104211,0.114737,0.117895
1.000000,0.103158,0.105263,0.113684,0.116842
1.000000,0.103158,0.105263,0.113684,0.116842
1.000000,0.102105,0.105263,0.112632,0.114737
1.000000,0.102105,0.105263,0.112632,0.114737
1.000000,0.101053,0.106316,0.111579,0.112632
1.000000,0.101053,0.106316,0.111579,0.112632
1.000000,0.100000,0.105263,0.109474,0.110526
1.000000,0.100000,0.105263,0.109474,0.110526
1.000000,0.098947,0.105263,0.106316,0.108421
1.000000,0.098947,0.105263,0.104211,0.105263
1.000000,0.096842,0.106316,0.103158,0.103158
1.000000,0.096842,0.106316,0.103158,0.103158
1.000000,0.097895,0.107368,0.102105,0.102105
1.000000,0.097895,0.107368,0.102105,0.102105
1.000000,0.096842,0.108421,0.100000,0.100000
1.000000,0.096842,0.108421,0.100000,0.100000
1.000000,0.096842,0.108421,0.097895,0.098947
1.000000,0.096842,0.108421,0.097895,0.098947
1.000000,0.095789,0.108421,0.097895,0.096842
0.966316,0.095789,0.108421,0.096842,0.095789
0.966316,0.095789,0.108421,0.096842,0.095789
0.887368,0.094737,0.108421,0.095789,0.095789
0.887368,0.094737,0.108421,0.095789,0.095789
0.773684,0.094737,0.107368,0.094737,0.094737
0.773684,0.094737,0.107368,0.094737,0.094737
0.646316,0.092632,0.105263,0.094737,0.094737
0.532632,0.092632,0.105263,0.093684,0.093684
0.532632,0.092632,0.105263,0.093684,0.093684
0.415789,0.090526,0.103158,0.093684,0.092632
0.415789,0.090526,0.103158,0.093684,0.092632
0.316842,0.088421,0.101053,0.092632,0.091579
0.316842,0.088421,0.101053,0.092632,0.091579
0.244211,0.087368,0.097895,0.091579,0.091579
0.244211,0.087368,0.097895,0.091579,0.091579
0.189474,0.085263,0.094737,0.090526,0.090526
0.189474,0.085263,0.094737,0.090526,0.090526
0.153684,0.083158,0.092632,0.089474,0.089474
0.130526,0.082105,0.089474,0.087368,0.088421
0.130526,0.082105,0.089474,0.087368,0.088421
0.115789,0.080000,0.086316,0.085263,0.087368
0.115789,0.080000,0.086316,0.085263,0.087368
0.104211,0.078947,0.084211,0.083158,0.085263
0.104211,0.078947,0.084211,0.083158,0.085263
0.094737,0.076842,0.082105,0.081053,0.084211
0.094737,0.076842,0.082105,0.081053,0.084211
0.086316,0.074737,0.080000,0.078947,0.083158
0.082105,0.074737,0.078947,0.076842,0.082105
0.080000,0.073684,0.077895,0.076842,0.081053
0.080000,0.073684,0.077895,0.076842,0.081053
0.075789,0.072632,0.076842,0.075789,0.081053
0.075789,0.072632,0.076842,0.075789,0.081053
0.072632,0.071579,0.076842,0.074737,0.080000
0.072632,0.071579,0.076842,0.074737,0.080000
0.070526,0.071579,0.075789,0.073684,0.078947
0.068421,0.070526,0.075789,0.073684,0.078947
0.068421,0.070526,0.075789,0.073684,0.078947
0.066316,0.070526,0.074737,0.072632,0.078947
0.066316,0.070526,0.074737,0.072632,0.078947
0.065263,0.070526,0.074737,0.071579,0.078947
0.065263,0.070526,0.074737,0.071579,0.078947
0.063158,0.069474,0.074737,0.071579,0.081053
0.063158,0.069474,0.074737,0.071579,0.081053
0.062105,0.068421,0.076842,0.071579,0.084211
0.062105,0.068421,0.076842,0.071579,0.084211
0.060000,0.068421,0.080000,0.072632,0.089474
0.060000,0.068421,0.080000,0.072632,0.089474
0.060000,0.067368,0.083158,0.074737,0.095789
0.060000,0.067368,0.083158,0.074737,0.095789
0.057895,0.068421,0.086316,0.080000,0.105263
0.057895,0.068421,0.086316,0.080000,0.105263
0.058947,0.068421,0.090526,0.090526,0.124211
0.058947,0.068421,0.090526,0.090526,0.124211
0.056842,0.068421,0.095789,0.118947,0.169474
0.055789,0.068421,0.098947,0.202105,0.258947
0.055789,0.068421,0.098947,0.202105,0.258947
0.054737,0.068421,0.106316,0.491579,0.535789
0.054737,0.068421,0.106316,0.491579,0.535789
0.055789,0.069474,0.112632,0.618947,0.660000
0.055789,0.069474,0.112632,0.618947,0.660000
0.053684,0.070526,0.118947,0.733684,0.770526
0.053684,0.072632,0.127368,0.830526,0.855789
0.053684,0.072632,0.127368,0.830526,0.855789
0.052632,0.073684,0.137895,0.887368,0.905263
0.053684,0.074737,0.150526,0.913684,0.932632
0.053684,0.074737,0.150526,0.913684,0.932632
0.052632,0.076842,0.165263,0.935789,0.949474
0.052632,0.076842,0.165263,0.935789,0.949474
0.051579,0.077895,0.192632,0.960000,0.965263
0.051579,0.077895,0.192632,0.960000,0.965263
0.051579,0.078947,0.233684,0.975789,0.971579
0.051579,0.081053,0.282105,0.986316,0.969474
0.051579,0.081053,0.282105,0.986316,0.969474
0.051579,0.083158,0.327368,0.989474,0.962105
0.051579,0.083158,0.327368,0.989474,0.962105
0.050526,0.084211,0.373684,0.994737,0.961053
0.050526,0.084211,0.373684,0.994737,0.961053
0.049474,0.086316,0.425263,0.993684,0.960000
0.049474,0.086316,0.425263,0.993684,0.960000
0.049474,0.087368,0.471579,0.992632,0.960000
0.049474,0.087368,0.471579,0.992632,0.960000
0.048421,0.088421,0.517895,0.991579,0.958947
0.048421,0.088421,0.517895,0.991579,0.958947
0.046316,0.089474,0.554737,0.990526,0.958947
0.046316,0.089474,0.554737,0.990526,0.958947
0.048421,0.090526,0.574737,0.988421,0.958947
0.048421,0.090526,0.574737,0.988421,0.958947
0.048421,0.091579,0.582105,0.987368,0.956842
0.048421,0.091579,0.582105,0.987368,0.956842
0.048421,0.091579,0.574737,0.984211,0.956842
0.047368,0.092632,0.574737,0.984211,0.954737
0.047368,0.092632,0.574737,0.984211,0.954737
0.046316,0.093684,0.564211,0.982105,0.953684
0.046316,0.093684,0.564211,0.982105,0.953684
0.047368,0.093684,0.544211,0.977895,0.950526
