0.054201,0.039432,0.088234,0.076890,0.008687,0.324191,0.156918,0.037005
0.057902,0.038075,0.089915,0.077233,0.009155,0.330184,0.158641,0.038109
0.060159,0.037617,0.090636,0.076161,0.009532,0.336071,0.160625,0.037367
0.061239,0.037128,0.092588,0.074934,0.009849,0.338873,0.164402,0.036239
0.063007,0.037118,0.096361,0.074406,0.011112,0.332456,0.168649,0.034338
0.062748,0.037248,0.096745,0.074159,0.011199,0.330259,0.168730,0.034443
0.061454,0.037702,0.096390,0.073663,0.011647,0.330459,0.168859,0.034817
0.060664,0.038685,0.100168,0.074101,0.012093,0.326306,0.166147,0.034682
0.061836,0.038817,0.101420,0.075128,0.012198,0.324678,0.165706,0.034174
0.062697,0.038755,0.103093,0.075997,0.012288,0.323030,0.165084,0.033136
0.063858,0.038200,0.105141,0.078235,0.012389,0.320479,0.163889,0.031205
0.064221,0.038107,0.106614,0.080098,0.012411,0.320228,0.163299,0.030379
0.064946,0.038426,0.106851,0.082949,0.012445,0.320345,0.162474,0.029557
0.064963,0.038369,0.108575,0.086211,0.012831,0.318052,0.160209,0.028928
0.064489,0.037514,0.108737,0.086618,0.013088,0.319150,0.157502,0.029766
0.063752,0.034182,0.107280,0.081460,0.012667,0.323033,0.155116,0.031146
0.063247,0.033479,0.106267,0.080174,0.012541,0.324027,0.155559,0.031256
0.062712,0.032677,0.105197,0.080148,0.012351,0.323555,0.155447,0.031429
0.062780,0.032842,0.107361,0.085578,0.011952,0.322924,0.154135,0.031883
0.063630,0.032904,0.109421,0.085968,0.010719,0.313201,0.153084,0.032397
0.064519,0.032583,0.110650,0.084923,0.009622,0.303015,0.151513,0.032827
0.065722,0.032322,0.110645,0.084476,0.008836,0.299462,0.152833,0.032532
0.066330,0.031980,0.108907,0.084325,0.008475,0.300254,0.157222,0.032259
0.066835,0.031648,0.107662,0.083915,0.008388,0.304277,0.162915,0.032112
0.067623,0.031718,0.105995,0.084603,0.008179,0.308458,0.170073,0.032006
0.070134,0.032351,0.106097,0.084926,0.007817,0.323242,0.173987,0.029937
0.067357,0.032850,0.108093,0.083856,0.007592,0.322983,0.174848,0.030487
0.064757,0.033478,0.108177,0.082579,0.007303,0.321378,0.175117,0.031216
0.063014,0.035077,0.108103,0.081258,0.006985,0.316373,0.177408,0.032858
0.063143,0.035589,0.107991,0.081043,0.006976,0.314270,0.175598,0.033611
0.064450,0.036662,0.105066,0.082546,0.006554,0.312517,0.171564,0.035433
0.065438,0.036680,0.102461,0.083788,0.006040,0.310601,0.168793,0.036580
0.066321,0.036406,0.101949,0.084090,0.005804,0.311422,0.167644,0.037359
0.067170,0.036475,0.107314,0.083369,0.005748,0.317695,0.167247,0.037400
0.067077,0.036950,0.113474,0.082357,0.005458,0.318403,0.166396,0.037936
0.067283,0.037437,0.115059,0.082191,0.005374,0.318676,0.165756,0.038239
0.067734,0.038522,0.115605,0.080253,0.005243,0.319491,0.164422,0.038655
0.063631,0.039622,0.114379,0.080125,0.005082,0.324070,0.161855,0.037917
0.062389,0.039348,0.111517,0.079213,0.005034,0.328593,0.161257,0.037795
0.061479,0.039079,0.107456,0.077603,0.004999,0.330330,0.158469,0.037478
0.060725,0.038833,0.100995,0.076743,0.004788,0.327040,0.156809,0.037277
0.064241,0.038345,0.093437,0.079994,0.004173,0.317169,0.152988,0.033726
0.066487,0.039073,0.091423,0.085170,0.004133,0.312087,0.149562,0.031719
0.066661,0.039308,0.091688,0.087483,0.004146,0.310253,0.148784,0.031374
0.066951,0.038944,0.092568,0.088333,0.004164,0.309932,0.153594,0.030797
0.066154,0.039394,0.087880,0.085758,0.004172,0.309114,0.156760,0.030469
0.065979,0.040043,0.087652,0.084365,0.004175,0.308475,0.158363,0.030581
0.065189,0.040538,0.088225,0.083128,0.004177,0.307365,0.160532,0.030685
0.063962,0.041931,0.088920,0.081029,0.003977,0.296449,0.157066,0.031035
0.063425,0.043161,0.092216,0.080431,0.003661,0.292771,0.154504,0.031737
0.063312,0.044155,0.094998,0.080308,0.003435,0.290982,0.151875,0.032244
0.063318,0.044362,0.096226,0.080171,0.003347,0.289719,0.151336,0.032456
0.059997,0.043756,0.102400,0.078906,0.003112,0.276882,0.148372,0.032786
0.059191,0.043525,0.102614,0.078467,0.003073,0.274597,0.147743,0.032276
0.058051,0.042667,0.101304,0.077412,0.002991,0.272819,0.146568,0.031495
0.056733,0.041406,0.100440,0.077975,0.002949,0.272990,0.146351,0.030155
0.056168,0.040647,0.100104,0.078737,0.002931,0.273246,0.145830,0.029513
0.053327,0.039170,0.100902,0.080030,0.003129,0.274676,0.143757,0.027639
0.052297,0.038940,0.102242,0.080031,0.003216,0.276403,0.143303,0.027001
0.051359,0.038691,0.104023,0.080008,0.003479,0.279258,0.142347,0.026498
0.048343,0.038242,0.107887,0.079548,0.004246,0.286718,0.141578,0.024948
0.047462,0.038233,0.107446,0.078868,0.004355,0.284867,0.142022,0.024595
0.045374,0.034203,0.093227,0.075933,0.005226,0.276879,0.152194,0.023042
0.044656,0.033373,0.092002,0.075592,0.005299,0.276400,0.154270,0.022852
0.042995,0.031408,0.088614,0.072063,0.005457,0.274977,0.159038,0.022441
0.042498,0.030518,0.088270,0.073317,0.005887,0.271627,0.160603,0.021938
0.042303,0.030139,0.089213,0.075367,0.006220,0.272038,0.160945,0.021658
0.042582,0.030615,0.092227,0.082000,0.007004,0.276767,0.161576,0.021266
0.042978,0.030637,0.096060,0.085786,0.007417,0.279044,0.165217,0.020913
0.042973,0.030592,0.097419,0.086571,0.007803,0.280778,0.167485,0.020945
0.040190,0.030520,0.099791,0.086545,0.008407,0.282390,0.171312,0.021089
0.038942,0.030492,0.100874,0.086452,0.008641,0.282089,0.172026,0.021145
0.037886,0.030299,0.101791,0.086097,0.008840,0.281880,0.172656,0.021193
0.035251,0.029274,0.103202,0.081801,0.009066,0.281893,0.175114,0.021140
0.034032,0.029337,0.102092,0.078967,0.009306,0.281333,0.173010,0.021201
0.033686,0.029359,0.101557,0.077919,0.009464,0.281478,0.173214,0.021171
0.033491,0.028645,0.101893,0.076877,0.009825,0.284275,0.173935,0.020937
0.033423,0.028171,0.103043,0.076465,0.009983,0.286327,0.175028,0.020998
0.032266,0.027216,0.101689,0.075541,0.010326,0.290934,0.175681,0.020224
0.031944,0.027005,0.101054,0.075697,0.010407,0.293823,0.175092,0.020212
0.031507,0.026318,0.100070,0.076111,0.010533,0.299900,0.175150,0.020003
0.031415,0.025251,0.098843,0.076364,0.010624,0.305358,0.175512,0.019667
0.031116,0.023609,0.095085,0.075035,0.010714,0.304725,0.175528,0.019095
0.030231,0.022421,0.092440,0.073868,0.011049,0.313216,0.176108,0.018824
0.029841,0.022114,0.088946,0.073054,0.011635,0.319565,0.177196,0.018819
0.029114,0.021606,0.085237,0.072407,0.012398,0.323901,0.177625,0.018145
0.028976,0.021441,0.085048,0.072268,0.012578,0.324127,0.177030,0.017797
0.029081,0.021374,0.084889,0.071533,0.012797,0.325011,0.176528,0.017695
0.029303,0.021166,0.086401,0.069021,0.013659,0.335039,0.178359,0.017573
0.029176,0.019733,0.086693,0.066505,0.013701,0.342454,0.184340,0.016970
0.029187,0.018705,0.084653,0.065010,0.013332,0.337181,0.186576,0.016639
0.029176,0.017802,0.083492,0.064089,0.012937,0.332776,0.188665,0.016025
0.029045,0.017017,0.082916,0.063995,0.012570,0.329885,0.190351,0.015599
0.027232,0.016414,0.081740,0.067973,0.011891,0.337317,0.189247,0.014536
0.026257,0.016150,0.080145,0.071665,0.011695,0.343476,0.189831,0.013837
0.025740,0.016024,0.077917,0.077974,0.011949,0.353531,0.190809,0.013553
0.025585,0.016057,0.077316,0.079529,0.012078,0.356723,0.191787,0.013528
0.025073,0.016093,0.075240,0.078706,0.011916,0.357620,0.194243,0.013518
0.024354,0.014804,0.068970,0.072758,0.011701,0.359831,0.200314,0.013040
0.021661,0.014354,0.056491,0.066161,0.013965,0.361042,0.204099,0.012441
0.021889,0.014929,0.053588,0.068191,0.014705,0.361468,0.207527,0.013325
0.022234,0.015649,0.055923,0.073560,0.015347,0.360048,0.213902,0.014541
0.022471,0.015966,0.059040,0.081080,0.015984,0.368810,0.224961,0.016306
0.022180,0.015869,0.060527,0.084359,0.016090,0.373972,0.228581,0.016774
0.021135,0.015233,0.059999,0.087664,0.017253,0.378442,0.232566,0.017118
0.020937,0.014673,0.058799,0.090709,0.022446,0.380576,0.236814,0.017150
0.020674,0.015187,0.057833,0.094859,0.028490,0.370621,0.249631,0.017254
0.020366,0.015877,0.057145,0.097671,0.030365,0.369999,0.254373,0.017331
0.020465,0.016692,0.056017,0.100378,0.032340,0.365020,0.258086,0.017292
0.020636,0.016791,0.055398,0.101550,0.032761,0.359181,0.258741,0.017168
0.020723,0.016994,0.055593,0.102319,0.032784,0.356784,0.259367,0.017072
0.020744,0.017191,0.055757,0.103154,0.032963,0.355225,0.259854,0.016957
0.020656,0.017928,0.057225,0.105336,0.033918,0.352519,0.260307,0.016893
0.020313,0.018476,0.059048,0.110001,0.035771,0.349863,0.264005,0.016746
0.019779,0.018868,0.059839,0.114738,0.037640,0.348168,0.268403,0.016356
0.019598,0.019148,0.058213,0.118332,0.038834,0.341049,0.268379,0.016182
0.020167,0.020013,0.057005,0.124113,0.040750,0.336657,0.274678,0.016964
0.020407,0.020690,0.058489,0.128365,0.041588,0.338729,0.278902,0.017306
0.021862,0.021814,0.062041,0.132665,0.045011,0.353581,0.289858,0.019985
0.022250,0.022053,0.062715,0.131693,0.045688,0.350177,0.290218,0.020670
0.021875,0.021974,0.063708,0.127832,0.046795,0.344181,0.288782,0.021180
0.021930,0.022081,0.065040,0.123811,0.047005,0.339866,0.288637,0.021406
0.021955,0.022318,0.071150,0.123267,0.047600,0.331569,0.286307,0.021686
0.021949,0.022298,0.073837,0.123794,0.048085,0.330229,0.284649,0.021851
0.022225,0.022163,0.078037,0.124464,0.048030,0.334708,0.281768,0.022393
0.022309,0.022123,0.079667,0.124769,0.047588,0.337911,0.280364,0.022603
0.022520,0.021374,0.082009,0.124762,0.046485,0.342748,0.278043,0.022932
0.022282,0.021021,0.083295,0.124427,0.045985,0.343959,0.275949,0.022952
0.019627,0.022791,0.089951,0.118076,0.044181,0.346497,0.250429,0.020163
0.019370,0.024053,0.092865,0.116936,0.044019,0.345864,0.245733,0.019963
0.019302,0.025458,0.095332,0.115971,0.043881,0.345482,0.241234,0.019793
0.019291,0.028355,0.100675,0.112710,0.043132,0.340197,0.228742,0.019385
0.019291,0.029116,0.101693,0.111697,0.042104,0.338043,0.225080,0.019282
0.019898,0.029760,0.102555,0.110839,0.040569,0.336345,0.221311,0.019195
0.021553,0.031213,0.104426,0.108879,0.034951,0.331961,0.209885,0.020368
0.031498,0.035537,0.109834,0.108800,0.030440,0.328674,0.193102,0.025952
0.037438,0.038946,0.115021,0.107867,0.028317,0.333676,0.184303,0.029572
0.039823,0.040996,0.119887,0.107702,0.027447,0.336313,0.181579,0.031357
0.040724,0.041873,0.121585,0.107570,0.027103,0.335947,0.180332,0.032151
0.042572,0.044133,0.124214,0.106012,0.026134,0.333125,0.181091,0.033872
0.043234,0.045124,0.124216,0.104054,0.025017,0.337198,0.182252,0.034933
0.043581,0.046054,0.122320,0.100677,0.023864,0.342862,0.180915,0.036110
0.046198,0.047846,0.120005,0.095425,0.021813,0.346098,0.176495,0.037339
0.048092,0.048412,0.119457,0.094412,0.021196,0.347250,0.174341,0.037603
0.050072,0.048995,0.118842,0.093132,0.020469,0.347534,0.170836,0.037905
0.057625,0.050668,0.115130,0.088371,0.018654,0.344313,0.158928,0.041045
0.064235,0.051273,0.111856,0.086533,0.017207,0.335530,0.151565,0.042658
0.068657,0.051493,0.110585,0.085189,0.016587,0.331622,0.148324,0.043373
0.087844,0.053533,0.110228,0.081581,0.014923,0.329355,0.141980,0.047661
0.092565,0.054131,0.111478,0.080975,0.014648,0.330061,0.141163,0.049363
0.102990,0.055067,0.114095,0.080297,0.014218,0.331901,0.140955,0.052208
0.113773,0.055420,0.114934,0.079816,0.013796,0.335244,0.141359,0.055349
0.118783,0.055542,0.111453,0.078417,0.013231,0.337799,0.141052,0.057009
0.126411,0.055675,0.106222,0.078732,0.012028,0.333702,0.139624,0.058928
0.131843,0.055629,0.103103,0.078485,0.011328,0.332408,0.140979,0.061183
0.135238,0.055924,0.099841,0.077904,0.011023,0.332437,0.147565,0.062864
0.139658,0.055549,0.093835,0.071488,0.010412,0.328462,0.156890,0.066023
0.146426,0.054448,0.086237,0.068296,0.010145,0.322952,0.161584,0.069677
0.151589,0.053415,0.082832,0.066555,0.010041,0.317714,0.163972,0.071564
0.159479,0.051670,0.077588,0.064565,0.009879,0.309959,0.173616,0.074663
0.162555,0.051080,0.075702,0.064129,0.009846,0.308129,0.179985,0.075934
0.167180,0.049997,0.072864,0.065060,0.009794,0.305862,0.189809,0.077921
0.168244,0.049604,0.071813,0.065696,0.009774,0.304663,0.193589,0.078691
0.170011,0.047816,0.070239,0.068606,0.010329,0.304053,0.207537,0.078363
0.163225,0.043446,0.065598,0.068693,0.010787,0.303623,0.213126,0.074567
0.159656,0.040364,0.060922,0.067281,0.010518,0.293345,0.214290,0.071629
0.157470,0.037857,0.058991,0.065775,0.010198,0.284864,0.214518,0.069637
0.157520,0.035028,0.058244,0.066101,0.009871,0.274869,0.215175,0.068237
0.158097,0.034492,0.058912,0.066233,0.009184,0.272156,0.215292,0.067143
0.158359,0.034006,0.059220,0.066063,0.008698,0.271212,0.214275,0.066772
0.158417,0.033097,0.060344,0.066581,0.007889,0.269782,0.214286,0.066669
0.155969,0.032089,0.062005,0.068196,0.007270,0.269701,0.217426,0.066808
0.158147,0.030136,0.063715,0.068527,0.006636,0.271349,0.219763,0.064389
0.157716,0.029544,0.064276,0.068113,0.006261,0.272446,0.219726,0.062394
0.154101,0.028913,0.064678,0.067815,0.006032,0.272240,0.221140,0.060656
0.147686,0.028242,0.063992,0.069147,0.005869,0.269715,0.221519,0.058790
0.141195,0.028052,0.062230,0.071046,0.005826,0.265385,0.219367,0.056147
0.137479,0.028039,0.060880,0.071782,0.005561,0.265604,0.218675,0.054372
0.128921,0.028623,0.057896,0.073583,0.005191,0.264751,0.216331,0.051411
0.122889,0.029387,0.056533,0.075561,0.004966,0.264229,0.212414,0.049144
0.118570,0.029937,0.055557,0.075646,0.004805,0.264519,0.210185,0.047188
0.114625,0.030316,0.054777,0.073534,0.004691,0.266343,0.209728,0.045669
0.108248,0.030853,0.053908,0.069921,0.004752,0.259342,0.211513,0.043955
0.105182,0.031097,0.053475,0.068093,0.005237,0.256449,0.209183,0.042023
0.102267,0.030690,0.053164,0.066841,0.005834,0.254807,0.203029,0.039969
0.099650,0.029298,0.052247,0.065359,0.006544,0.254469,0.196276,0.037526
0.095739,0.028644,0.053829,0.065898,0.006854,0.254686,0.195378,0.034315
0.089552,0.027941,0.052715,0.067338,0.007076,0.254389,0.192937,0.030884
0.087099,0.027487,0.052271,0.067999,0.007336,0.257944,0.190027,0.030013
0.083697,0.026937,0.051180,0.068761,0.007687,0.267210,0.185400,0.028821
0.079190,0.025842,0.047011,0.067585,0.007735,0.284183,0.185816,0.026901
0.077885,0.025577,0.045666,0.066189,0.007466,0.286329,0.185319,0.026348
0.077293,0.025474,0.045145,0.065791,0.007319,0.288232,0.185331,0.025973
0.077664,0.024602,0.045314,0.064926,0.007079,0.293241,0.186186,0.025083
0.080837,0.024522,0.045808,0.065609,0.006996,0.297052,0.186735,0.025357
0.093120,0.025422,0.044084,0.069159,0.007561,0.314541,0.187747,0.028443
0.096681,0.026030,0.043751,0.069887,0.007911,0.320804,0.189855,0.030682
0.100357,0.026927,0.044027,0.070750,0.008573,0.327932,0.191775,0.033333
0.106772,0.027748,0.043575,0.071693,0.009634,0.337692,0.197656,0.037476
0.115049,0.028994,0.042060,0.072177,0.010846,0.350473,0.204750,0.041477
0.117216,0.029417,0.041280,0.071591,0.011191,0.354855,0.205177,0.041978
0.122063,0.030064,0.039469,0.069657,0.011643,0.359650,0.205232,0.043343
0.125319,0.030393,0.037817,0.068241,0.011892,0.360689,0.206742,0.045018
0.130085,0.030610,0.036514,0.066949,0.012071,0.362477,0.210441,0.051308
0.141578,0.031894,0.035293,0.065904,0.012507,0.372914,0.215165,0.058589
0.163956,0.033718,0.034553,0.062954,0.012723,0.384458,0.215266,0.065707
0.171171,0.034304,0.034378,0.061591,0.012774,0.386226,0.214972,0.068356
0.188659,0.035957,0.033201,0.059624,0.012692,0.386823,0.215383,0.074864
0.197945,0.035824,0.031931,0.057876,0.012571,0.385720,0.216385,0.079026
0.201629,0.035737,0.031275,0.057382,0.012524,0.387156,0.216231,0.081004
0.220296,0.036756,0.029256,0.055611,0.013792,0.408448,0.219300,0.088594
0.222655,0.037124,0.029247,0.055797,0.013875,0.409577,0.219110,0.089368
0.226676,0.037723,0.029233,0.056089,0.013828,0.410934,0.220777,0.090579
0.230091,0.038388,0.029252,0.056892,0.014035,0.413715,0.221659,0.091889
0.234999,0.041864,0.028787,0.058534,0.015104,0.423580,0.221816,0.093040
0.240216,0.044416,0.027253,0.057789,0.015904,0.430781,0.222066,0.095290
0.250414,0.047237,0.026185,0.056272,0.016548,0.437350,0.223147,0.098436
0.259440,0.049780,0.025407,0.053620,0.017251,0.434157,0.222067,0.101101
0.278099,0.053549,0.025877,0.050155,0.018787,0.434988,0.216534,0.107215
0.284311,0.054676,0.026037,0.049106,0.019150,0.436506,0.215919,0.108877
0.304817,0.059421,0.035587,0.049200,0.020380,0.443378,0.216572,0.113686
0.309732,0.060388,0.037994,0.049319,0.020627,0.444417,0.217778,0.114458
0.312721,0.061151,0.037589,0.049404,0.022161,0.445916,0.219751,0.115497
0.309531,0.061399,0.036621,0.047587,0.023946,0.440844,0.220762,0.114233
0.308106,0.060941,0.035825,0.045642,0.024011,0.431297,0.215590,0.111215
0.311387,0.059927,0.034223,0.044071,0.023382,0.420434,0.209209,0.107674
0.314169,0.058556,0.032652,0.043297,0.022613,0.397447,0.199116,0.103960
0.315568,0.057003,0.032336,0.042559,0.021626,0.364097,0.183744,0.098858
0.308595,0.056725,0.033676,0.042923,0.021453,0.361925,0.176642,0.093148
0.300057,0.056023,0.034581,0.042811,0.021926,0.358254,0.171759,0.088858
0.287288,0.055131,0.036565,0.044787,0.022264,0.350332,0.168665,0.084684
0.264663,0.052785,0.040507,0.047514,0.022601,0.340164,0.168484,0.080826
0.246913,0.050649,0.050120,0.048059,0.022805,0.333823,0.167087,0.078437
0.233171,0.050301,0.057802,0.048292,0.022929,0.338310,0.165619,0.074775
0.233275,0.050601,0.059982,0.048467,0.022958,0.337894,0.164178,0.073498
0.233921,0.050843,0.061828,0.048616,0.022965,0.336292,0.162958,0.072416
0.234505,0.051517,0.064720,0.048556,0.022429,0.327233,0.160372,0.070867
0.240054,0.051487,0.069366,0.049169,0.021225,0.318165,0.155779,0.069739
0.242560,0.051455,0.072693,0.051056,0.020679,0.320827,0.152184,0.069709
0.244978,0.050345,0.080939,0.052051,0.019232,0.326466,0.148361,0.069102
0.244640,0.048371,0.085949,0.052962,0.018116,0.323063,0.145901,0.068070
0.243750,0.046909,0.087834,0.054028,0.017669,0.320719,0.144456,0.067298
0.229510,0.042802,0.092505,0.056237,0.016550,0.316422,0.136888,0.062368
0.220796,0.040431,0.095308,0.057141,0.015826,0.312949,0.132895,0.058348
0.215764,0.039147,0.096037,0.057088,0.015310,0.312480,0.131581,0.055775
0.202321,0.037030,0.097129,0.057148,0.015087,0.310625,0.128433,0.051533
0.191533,0.035729,0.097237,0.056353,0.015179,0.308253,0.122495,0.048688
0.186015,0.034349,0.095714,0.053105,0.015355,0.308197,0.115160,0.046046
0.183223,0.034111,0.095914,0.052542,0.015412,0.306507,0.109705,0.045793
0.179314,0.033744,0.096626,0.053009,0.015037,0.308107,0.105726,0.045606
0.175701,0.033164,0.097611,0.052643,0.013578,0.311570,0.102104,0.045062
0.172132,0.032933,0.099936,0.051808,0.012533,0.313338,0.099200,0.044869
0.168924,0.033213,0.101146,0.051790,0.012436,0.314278,0.098753,0.044794
0.169133,0.036224,0.103644,0.052237,0.012345,0.318263,0.097328,0.044670
0.168459,0.039714,0.106515,0.053642,0.012513,0.330282,0.094465,0.044688
0.168438,0.040370,0.107078,0.054592,0.012668,0.338108,0.094211,0.044654
0.168153,0.041685,0.110507,0.056076,0.012903,0.350039,0.093514,0.044969
0.165616,0.044229,0.118568,0.057697,0.013125,0.361099,0.091705,0.045903
0.164225,0.045597,0.121683,0.057970,0.013222,0.364515,0.091338,0.046379
0.164013,0.047891,0.125362,0.058248,0.013332,0.372695,0.091746,0.046350
0.163183,0.048431,0.125719,0.057375,0.013226,0.374789,0.091629,0.046045
0.162929,0.049377,0.125563,0.055713,0.013061,0.379566,0.090144,0.045830
0.167031,0.050058,0.125987,0.054462,0.013279,0.387781,0.088523,0.045021
0.176385,0.050731,0.123355,0.053607,0.014091,0.397331,0.088988,0.044973
0.185479,0.051387,0.119985,0.054806,0.014860,0.404660,0.089420,0.047305
0.191758,0.052090,0.115974,0.057662,0.015687,0.415579,0.089903,0.050775
0.189736,0.051747,0.113914,0.058555,0.016060,0.423621,0.090914,0.052758
0.182454,0.051301,0.111142,0.059241,0.017100,0.432778,0.094673,0.053605
0.179817,0.051355,0.109134,0.058420,0.017750,0.435572,0.095466,0.054127
0.174556,0.052017,0.103516,0.055541,0.019158,0.427547,0.097819,0.055230
0.184415,0.056553,0.095570,0.057055,0.022427,0.422169,0.100646,0.058574
0.190377,0.059382,0.093395,0.057351,0.023656,0.421431,0.102960,0.060872
0.193237,0.060480,0.093076,0.057466,0.024264,0.421332,0.104417,0.062339
0.208004,0.062073,0.090953,0.058324,0.025429,0.428620,0.108485,0.065678
0.212909,0.062940,0.090497,0.058564,0.025589,0.430543,0.109232,0.066736
0.223087,0.064483,0.089841,0.058901,0.025064,0.431738,0.113126,0.068679
0.225135,0.064708,0.090070,0.059045,0.024518,0.433717,0.115594,0.069098
0.224710,0.064366,0.087285,0.059148,0.024127,0.435294,0.117220,0.069391
0.224216,0.064551,0.085792,0.059188,0.023975,0.436018,0.117829,0.069051
0.224296,0.066556,0.083293,0.056295,0.023523,0.443922,0.118440,0.068347
0.224262,0.068026,0.082837,0.056420,0.023290,0.449215,0.117996,0.067990
0.225798,0.069432,0.080947,0.056448,0.023447,0.453690,0.117991,0.067700
0.223169,0.067901,0.079797,0.055605,0.023245,0.457166,0.117543,0.068435
0.220518,0.066881,0.079874,0.054875,0.023227,0.458492,0.117447,0.068554
0.215083,0.065281,0.081287,0.052567,0.023007,0.454519,0.117216,0.069133
0.208534,0.063326,0.081937,0.048867,0.022560,0.446787,0.116396,0.070737
0.207187,0.062805,0.081450,0.047992,0.022454,0.445882,0.116591,0.071995
0.205586,0.062050,0.079935,0.046559,0.022289,0.445002,0.117510,0.073549
0.204554,0.061741,0.077577,0.045156,0.021780,0.447696,0.117813,0.074299
0.203895,0.061771,0.077221,0.045567,0.021553,0.446413,0.116863,0.074732
0.202371,0.063377,0.082662,0.046343,0.021199,0.440555,0.115166,0.075792
0.200201,0.065441,0.088940,0.046676,0.021438,0.437170,0.113431,0.074476
0.196508,0.066402,0.089893,0.046587,0.021005,0.436044,0.110936,0.072407
0.191099,0.066514,0.090020,0.045687,0.020833,0.435598,0.108707,0.068540
0.184728,0.065930,0.090212,0.041987,0.021351,0.429995,0.106376,0.062687
0.181964,0.066739,0.096437,0.041665,0.021863,0.421021,0.104838,0.059592
0.180090,0.067274,0.102741,0.041774,0.022131,0.412332,0.104176,0.057226
0.179024,0.068176,0.110179,0.046796,0.021358,0.406352,0.100694,0.054880
0.177151,0.068016,0.115590,0.052954,0.020358,0.404735,0.099050,0.052193
0.174295,0.067480,0.116489,0.053462,0.019933,0.406280,0.099520,0.051397
0.164652,0.065937,0.116762,0.053842,0.018350,0.405045,0.099960,0.049313
0.160162,0.064468,0.116686,0.053468,0.017736,0.406083,0.100075,0.048660
0.147511,0.063222,0.121208,0.052389,0.015517,0.413892,0.096484,0.046304
0.131424,0.063137,0.125100,0.051755,0.014532,0.410335,0.094384,0.044382
0.123856,0.063270,0.127760,0.051646,0.014354,0.409464,0.091747,0.043483
0.118036,0.063448,0.128618,0.052348,0.014966,0.414872,0.089541,0.043052
0.115711,0.063494,0.128951,0.053664,0.015281,0.417162,0.088438,0.043016
0.111236,0.063816,0.129839,0.058336,0.017076,0.425598,0.087606,0.042939
0.110983,0.064546,0.130137,0.060968,0.017980,0.425194,0.087817,0.043045
0.110824,0.065788,0.130125,0.061903,0.018401,0.424467,0.088219,0.043279
0.111170,0.068259,0.128937,0.062050,0.019059,0.420879,0.089057,0.044258
0.110318,0.070629,0.128665,0.062199,0.019733,0.418867,0.088410,0.046094
0.110586,0.072284,0.127606,0.062193,0.020169,0.423461,0.087156,0.046195
0.109558,0.074077,0.126393,0.062824,0.020469,0.429918,0.086343,0.047922
0.108587,0.078008,0.122901,0.064576,0.022231,0.452963,0.089367,0.051292
0.107858,0.078703,0.119795,0.065650,0.022615,0.455559,0.090333,0.050401
0.107421,0.078812,0.118167,0.066100,0.022764,0.456263,0.090414,0.050165
0.107415,0.079567,0.115663,0.067747,0.023119,0.453701,0.090466,0.049937
0.107556,0.079560,0.114283,0.068361,0.023279,0.452543,0.090514,0.049832
0.107881,0.079682,0.109526,0.067925,0.023337,0.459542,0.091400,0.049163
0.110291,0.082052,0.097738,0.067323,0.024104,0.477053,0.094406,0.050699
0.108422,0.082901,0.093899,0.067256,0.025113,0.485557,0.095586,0.053817
0.109201,0.083769,0.093015,0.067270,0.024887,0.486048,0.096034,0.055928
0.114910,0.086044,0.089631,0.065682,0.024932,0.485490,0.098043,0.067353
0.117522,0.086434,0.083039,0.064083,0.025501,0.486945,0.099502,0.072455
0.121345,0.087338,0.079070,0.060607,0.026592,0.490444,0.102005,0.080520
0.122491,0.087999,0.078292,0.057976,0.026979,0.491431,0.103097,0.082600
0.125222,0.088927,0.077636,0.053496,0.027820,0.492615,0.105045,0.085910
0.130059,0.089441,0.079433,0.050191,0.028478,0.491249,0.104727,0.089299
0.140086,0.090281,0.081509,0.048699,0.030130,0.496757,0.106495,0.094846
0.142652,0.090743,0.080977,0.048152,0.030777,0.498146,0.107521,0.095994
0.149114,0.090630,0.078048,0.045672,0.034003,0.518605,0.114349,0.102797
0.156303,0.090197,0.079151,0.045070,0.035021,0.523889,0.116971,0.105878
0.160750,0.090080,0.079906,0.044654,0.036023,0.524711,0.117551,0.107257
0.180386,0.090802,0.084258,0.041647,0.037602,0.514913,0.122239,0.116887
0.185304,0.091292,0.085413,0.040432,0.037604,0.515816,0.123007,0.119470
0.195751,0.092961,0.087016,0.038315,0.037413,0.521786,0.124597,0.124084
0.208555,0.093154,0.087504,0.035954,0.038570,0.533070,0.125501,0.129620
0.220515,0.094462,0.086653,0.035757,0.042554,0.548940,0.129804,0.143907
0.225640,0.095966,0.085853,0.035379,0.043614,0.550135,0.131843,0.150046
0.231764,0.097844,0.084210,0.034922,0.044719,0.548614,0.135778,0.153444
0.235897,0.098719,0.083218,0.034744,0.045719,0.545263,0.137642,0.154434
0.254345,0.102659,0.082297,0.034578,0.050138,0.545380,0.144141,0.158077
0.263489,0.106687,0.082456,0.034526,0.054521,0.553529,0.151667,0.161558
0.266885,0.108530,0.082936,0.034393,0.056391,0.558592,0.154968,0.163538
0.275369,0.113769,0.084128,0.032118,0.064156,0.580574,0.163977,0.173060
0.277159,0.113683,0.085025,0.031419,0.067919,0.585534,0.166382,0.175704
0.277315,0.113672,0.085471,0.031216,0.068990,0.586414,0.167269,0.176850
0.277469,0.115105,0.085662,0.030899,0.071364,0.589321,0.170003,0.178714
0.278712,0.117095,0.085044,0.030886,0.073150,0.592764,0.173117,0.179822
0.271435,0.117540,0.083056,0.032695,0.075593,0.597879,0.176331,0.178382
0.269896,0.117559,0.082619,0.033267,0.075618,0.599456,0.177239,0.178961
0.269327,0.118915,0.082033,0.033809,0.075388,0.600579,0.178161,0.179006
0.268416,0.120284,0.080033,0.033861,0.074998,0.603400,0.177664,0.177341
0.266142,0.122338,0.077739,0.035152,0.074619,0.617329,0.175369,0.174859
0.263322,0.123740,0.075508,0.036299,0.074454,0.623950,0.173650,0.173255
0.255582,0.126459,0.074699,0.037022,0.073810,0.625067,0.169871,0.171287
0.245911,0.127734,0.077041,0.037666,0.072292,0.611217,0.162707,0.166688
0.242680,0.127855,0.079426,0.038665,0.070455,0.593034,0.157175,0.161130
0.236068,0.127879,0.079060,0.039177,0.069284,0.592257,0.154431,0.157624
0.222641,0.128522,0.080827,0.039048,0.066225,0.592337,0.150367,0.151222
0.218553,0.128738,0.080981,0.039355,0.065587,0.591818,0.148950,0.147858
0.210739,0.128297,0.081474,0.040283,0.064936,0.585082,0.146642,0.143571
0.194186,0.125727,0.082304,0.043109,0.064468,0.571176,0.144762,0.138008
0.189939,0.124319,0.083015,0.043802,0.063822,0.569390,0.144488,0.136335
0.182463,0.120507,0.085474,0.044433,0.062487,0.560489,0.143643,0.131242
0.172919,0.115947,0.089761,0.044783,0.059772,0.554552,0.141381,0.118378
0.163870,0.112147,0.095667,0.044729,0.057706,0.550414,0.140106,0.107284
0.157839,0.110631,0.103034,0.044431,0.055299,0.553971,0.135314,0.101914
0.140711,0.107442,0.114351,0.044415,0.050460,0.557799,0.127519,0.096248
0.131287,0.103417,0.120879,0.044719,0.046084,0.552652,0.120014,0.091417
0.124064,0.099520,0.124925,0.045083,0.042388,0.547858,0.115089,0.085750
0.118339,0.096045,0.127824,0.045436,0.038839,0.542909,0.110597,0.079864
0.114489,0.093770,0.130691,0.045744,0.035735,0.535081,0.106747,0.075373
0.107083,0.087152,0.141047,0.048091,0.032002,0.519371,0.104439,0.067257
0.106666,0.085240,0.145583,0.048585,0.030984,0.510247,0.105851,0.065364
0.106861,0.085980,0.150023,0.048636,0.029930,0.502172,0.107258,0.063893
0.098476,0.084592,0.157960,0.047424,0.028545,0.501545,0.110514,0.049108
0.095888,0.082643,0.158997,0.046892,0.029151,0.497560,0.113579,0.046971
0.093959,0.080086,0.159819,0.047112,0.029442,0.491875,0.116663,0.045546
0.092776,0.079677,0.160787,0.046969,0.030700,0.493711,0.121010,0.045176
0.096047,0.079662,0.161261,0.048142,0.032530,0.496697,0.127092,0.044481
0.105426,0.081181,0.162633,0.049986,0.035984,0.502259,0.136523,0.045889
0.117343,0.083239,0.161286,0.051538,0.040086,0.511794,0.142105,0.050403
0.127046,0.084227,0.160041,0.052329,0.041848,0.510194,0.143778,0.052926
0.134309,0.083975,0.155526,0.052896,0.043111,0.507779,0.145303,0.054904
0.140448,0.083348,0.149643,0.052113,0.046438,0.514936,0.146641,0.056266
0.143083,0.083341,0.147071,0.049902,0.048713,0.523262,0.147868,0.056370
0.148959,0.083808,0.150195,0.047936,0.052482,0.528812,0.148864,0.056348
0.153169,0.084726,0.158473,0.045919,0.057131,0.529381,0.148553,0.055672
0.154377,0.084959,0.161487,0.044694,0.059406,0.526638,0.148694,0.055386
0.153866,0.085128,0.165888,0.043861,0.061869,0.524560,0.152982,0.055604
0.152714,0.084025,0.167432,0.043827,0.062589,0.525649,0.154742,0.055630
0.151592,0.083287,0.169605,0.043798,0.063199,0.525720,0.156320,0.055652
0.149124,0.081832,0.169056,0.046008,0.063992,0.521544,0.158965,0.054836
0.146207,0.080797,0.165230,0.048839,0.064591,0.520936,0.158975,0.053657
0.145583,0.080762,0.164401,0.049321,0.064849,0.522365,0.158587,0.053840
0.144049,0.080322,0.162604,0.051078,0.067585,0.527324,0.160599,0.054739
0.142824,0.079768,0.161818,0.051789,0.068829,0.527585,0.163156,0.055027
0.141438,0.078985,0.159115,0.052304,0.068442,0.526505,0.163798,0.055233
0.140505,0.079225,0.156903,0.052521,0.068043,0.521531,0.163233,0.055129
0.134420,0.078184,0.151803,0.049944,0.067767,0.514642,0.158706,0.052786
0.128123,0.074297,0.147505,0.048546,0.067940,0.507133,0.154494,0.051020
0.128663,0.072554,0.145647,0.048377,0.067674,0.501249,0.154397,0.049817
0.129591,0.071554,0.144159,0.048604,0.067044,0.488777,0.153860,0.048015
0.131329,0.072200,0.143092,0.048287,0.066256,0.474949,0.153309,0.047511
0.132418,0.073113,0.142018,0.047524,0.066484,0.466456,0.151584,0.047283
0.133116,0.073774,0.143302,0.045579,0.066710,0.458397,0.149121,0.047276
0.133430,0.074060,0.143867,0.045058,0.066905,0.452385,0.148391,0.047538
0.130336,0.072979,0.141333,0.041970,0.064827,0.437170,0.142856,0.047758
0.122139,0.070389,0.136781,0.037880,0.061663,0.419971,0.138023,0.051020
0.107725,0.069823,0.132689,0.035067,0.057435,0.402742,0.136190,0.053029
0.102006,0.069393,0.131604,0.034434,0.056434,0.396903,0.136199,0.054976
0.093345,0.069104,0.130310,0.033581,0.055040,0.388586,0.136809,0.060640
0.084301,0.069108,0.131392,0.032813,0.052667,0.378236,0.140891,0.068792
0.080396,0.070729,0.138492,0.032732,0.050052,0.368776,0.142473,0.077151
0.078506,0.070724,0.141725,0.032722,0.048875,0.363194,0.142395,0.082036
0.069446,0.070847,0.141889,0.033610,0.043851,0.347879,0.143454,0.097509
0.065853,0.069941,0.142626,0.036120,0.041157,0.339239,0.144125,0.109160
0.070611,0.070887,0.146588,0.040338,0.037108,0.321261,0.140329,0.131588
0.075972,0.077695,0.145913,0.041495,0.036019,0.304441,0.141096,0.145305
0.081072,0.082403,0.148164,0.040236,0.035554,0.290836,0.142546,0.157448
0.088239,0.087758,0.149044,0.038505,0.035463,0.272985,0.145104,0.178596
0.090074,0.089263,0.149206,0.037857,0.036160,0.267071,0.144974,0.186054
0.094727,0.091788,0.149458,0.036843,0.036068,0.255122,0.145676,0.201868
0.101798,0.094564,0.149729,0.036228,0.036534,0.242411,0.146651,0.222313
0.112128,0.096736,0.148638,0.036445,0.037167,0.229913,0.149520,0.243575
0.120148,0.097784,0.147689,0.036540,0.037159,0.224164,0.150549,0.257531
0.128074,0.101260,0.147002,0.036804,0.037423,0.221591,0.152387,0.276154
0.141948,0.106439,0.146509,0.037116,0.037729,0.221234,0.154293,0.291713
0.160460,0.114518,0.146124,0.037056,0.038886,0.221926,0.154792,0.314434
0.175269,0.124556,0.145118,0.036783,0.039874,0.224094,0.155294,0.335336
0.185947,0.129076,0.145106,0.036767,0.040129,0.227817,0.157002,0.352582
0.195836,0.134616,0.145822,0.037101,0.040456,0.232157,0.160108,0.368806
0.209393,0.141763,0.144558,0.037124,0.041161,0.236990,0.164236,0.385998
0.219950,0.146627,0.144193,0.037745,0.042163,0.241353,0.165971,0.398362
0.233931,0.152068,0.143860,0.038237,0.043707,0.247537,0.166972,0.409896
0.251770,0.157042,0.144591,0.038372,0.045314,0.255102,0.169126,0.415510
0.273947,0.163117,0.148104,0.038819,0.047405,0.263652,0.171306,0.425204
0.293673,0.169643,0.150279,0.039174,0.051496,0.278582,0.176098,0.439889
0.309045,0.176172,0.152272,0.040446,0.055276,0.291642,0.180821,0.458029
0.320750,0.182486,0.152446,0.042546,0.057085,0.300941,0.185408,0.463305
0.339535,0.192367,0.151586,0.045042,0.058209,0.310771,0.193558,0.467745
0.352781,0.197354,0.146725,0.045062,0.061009,0.321495,0.199599,0.466812
0.359507,0.199962,0.143102,0.044594,0.063345,0.327034,0.201954,0.465266
0.378834,0.205952,0.136256,0.044244,0.070091,0.337991,0.210632,0.465149
0.398818,0.208021,0.137505,0.044976,0.075239,0.343979,0.217090,0.475659
0.412592,0.209119,0.135574,0.045538,0.079539,0.353187,0.222485,0.487008
0.423072,0.212945,0.136359,0.045464,0.083685,0.362549,0.228273,0.489980
0.435299,0.219245,0.137276,0.045496,0.088082,0.372952,0.232584,0.486850
0.457756,0.228957,0.143971,0.046045,0.093472,0.391499,0.240599,0.477127
0.473840,0.240110,0.149152,0.047290,0.096119,0.406959,0.243618,0.472298
0.485177,0.247908,0.152310,0.047397,0.097993,0.419282,0.245486,0.465125
0.497654,0.262475,0.154594,0.047709,0.100874,0.433820,0.250856,0.459901
0.503921,0.275656,0.159276,0.049420,0.102752,0.442923,0.262025,0.459504
0.506316,0.286112,0.162800,0.050688,0.103433,0.446536,0.272090,0.460408
0.508431,0.296093,0.167418,0.053565,0.106846,0.463024,0.284154,0.461426
0.508467,0.296963,0.169842,0.054130,0.107682,0.470332,0.285946,0.459006
0.510899,0.300874,0.178683,0.055735,0.108545,0.480151,0.286266,0.451252
0.514240,0.303310,0.181187,0.056317,0.109071,0.485427,0.285959,0.447416
0.518724,0.306564,0.186864,0.057226,0.109845,0.491780,0.285929,0.442132
0.524514,0.312153,0.200861,0.057314,0.110091,0.499166,0.291148,0.444225
0.525348,0.314515,0.213616,0.056748,0.109215,0.498602,0.294645,0.449094
0.521998,0.315303,0.225985,0.056374,0.107702,0.496027,0.295075,0.454956
0.511934,0.315657,0.240141,0.056158,0.107030,0.497765,0.296308,0.456402
0.508052,0.315208,0.244055,0.056030,0.106576,0.497256,0.295380,0.454950
0.494600,0.312020,0.252590,0.055650,0.104848,0.492197,0.289727,0.438296
0.486518,0.310450,0.255190,0.055017,0.104090,0.490626,0.284688,0.423076
0.479855,0.307616,0.253393,0.053700,0.104007,0.487794,0.280212,0.408773
0.470957,0.301084,0.248925,0.051408,0.103425,0.485661,0.273752,0.396918
0.456372,0.293613,0.244355,0.048651,0.101283,0.480631,0.264679,0.380068
0.443521,0.290410,0.246240,0.046755,0.097315,0.480724,0.259932,0.371196
0.435626,0.289136,0.247072,0.045929,0.094579,0.480290,0.257882,0.367172
0.405186,0.281464,0.239900,0.043544,0.086395,0.481904,0.248084,0.347898
0.389598,0.276363,0.234647,0.041399,0.083088,0.482198,0.242927,0.331048
0.374762,0.270303,0.229122,0.039292,0.080220,0.481288,0.237470,0.311137
0.333756,0.249101,0.214679,0.035681,0.067497,0.464011,0.218865,0.272706
0.324790,0.244677,0.210679,0.035080,0.064681,0.462767,0.215420,0.267155
0.256771,0.211902,0.189975,0.030927,0.049614,0.449834,0.196428,0.241146
0.235408,0.198603,0.185825,0.029729,0.046032,0.448499,0.190295,0.220601
0.221263,0.185313,0.182695,0.028489,0.044797,0.446633,0.182444,0.203537
0.214516,0.179089,0.182683,0.028011,0.044545,0.447804,0.178545,0.196466
0.183440,0.154215,0.198007,0.025656,0.041239,0.460194,0.168980,0.167171
0.172289,0.144679,0.205405,0.024320,0.039749,0.459833,0.166426,0.158593
0.137032,0.122354,0.214046,0.021996,0.035792,0.464120,0.164029,0.139320
0.132014,0.118525,0.213086,0.022346,0.035075,0.469330,0.161947,0.134171
0.128726,0.114874,0.210797,0.022642,0.034578,0.474208,0.160492,0.128355
0.119147,0.107436,0.205546,0.023106,0.033801,0.484487,0.158174,0.106884
0.103322,0.101124,0.192661,0.023884,0.033166,0.498502,0.158556,0.091340
0.096090,0.099793,0.187352,0.024318,0.032426,0.502228,0.158258,0.080709
0.086636,0.100044,0.178507,0.024193,0.030530,0.521047,0.162932,0.067714
0.085081,0.101857,0.175908,0.024144,0.028634,0.524934,0.167296,0.063687
0.094641,0.101680,0.174178,0.023987,0.028370,0.531626,0.172324,0.060976
0.105930,0.104139,0.182129,0.024414,0.027948,0.544423,0.177715,0.058555
0.112436,0.106103,0.192230,0.024571,0.028252,0.553298,0.179210,0.059017
0.114367,0.106298,0.193024,0.024639,0.028600,0.556457,0.179271,0.060019
0.120447,0.108289,0.196097,0.024415,0.029633,0.572161,0.182884,0.063936
0.130350,0.115809,0.201194,0.023971,0.035830,0.602200,0.198539,0.070734
0.132108,0.117416,0.203720,0.023964,0.036700,0.605073,0.203318,0.071188
0.134062,0.120134,0.211286,0.024105,0.040217,0.612785,0.211166,0.071763
0.134633,0.121131,0.216102,0.024153,0.042524,0.610622,0.215481,0.071987
0.134901,0.121612,0.219995,0.023741,0.045313,0.609776,0.218529,0.072071
0.135224,0.121160,0.226222,0.023620,0.047160,0.608954,0.220740,0.072011
0.135360,0.120850,0.229283,0.023573,0.047877,0.607911,0.222135,0.072133
0.135226,0.119430,0.234067,0.023258,0.048261,0.604275,0.221762,0.072696
0.135198,0.118011,0.236167,0.022853,0.048344,0.604619,0.220375,0.074941
0.134700,0.117534,0.235593,0.022050,0.048166,0.612219,0.217166,0.077033
0.136124,0.116984,0.227847,0.021437,0.048747,0.617759,0.212836,0.078750
0.137928,0.115975,0.218623,0.020770,0.050271,0.625027,0.208219,0.081289
0.138846,0.115754,0.209715,0.020701,0.053209,0.630844,0.209538,0.087448
0.137354,0.114029,0.197821,0.019601,0.055476,0.623177,0.210693,0.093174
0.132907,0.115744,0.192855,0.018163,0.056365,0.618683,0.210169,0.093655
0.128283,0.116060,0.190491,0.017132,0.057095,0.613608,0.208663,0.095240
0.123901,0.113909,0.187707,0.015718,0.058289,0.604493,0.207949,0.112365
0.121986,0.110692,0.182514,0.014638,0.059095,0.598686,0.209575,0.127319
0.121456,0.109666,0.181246,0.014219,0.059407,0.594096,0.210494,0.134030
0.121284,0.104052,0.179580,0.013974,0.059649,0.575882,0.214736,0.159149
0.115092,0.102169,0.179798,0.015409,0.060263,0.568474,0.215436,0.169231
0.108514,0.101551,0.179766,0.015913,0.059594,0.562763,0.214869,0.173937
0.085585,0.094528,0.166364,0.016554,0.057507,0.537250,0.230599,0.202421
0.079592,0.090856,0.154983,0.016722,0.056174,0.518870,0.257418,0.229704
0.077598,0.088404,0.150743,0.017224,0.055701,0.502626,0.276349,0.246386
0.076540,0.087086,0.149068,0.017419,0.055424,0.499396,0.284401,0.255586
0.077512,0.085010,0.145855,0.017505,0.053447,0.500543,0.306478,0.282053
0.082251,0.083846,0.143840,0.017723,0.051622,0.501839,0.325701,0.310364
0.084026,0.083750,0.142968,0.017895,0.051145,0.502400,0.333293,0.319363
0.092189,0.085582,0.137849,0.019453,0.050830,0.503302,0.358885,0.362166
0.100211,0.085891,0.135463,0.021005,0.049470,0.500006,0.372851,0.387921
0.108300,0.087020,0.133620,0.023638,0.047618,0.494762,0.386024,0.415951
0.119742,0.088610,0.127985,0.027839,0.045076,0.486695,0.407089,0.456641
0.125882,0.089618,0.123547,0.030220,0.044062,0.482199,0.423620,0.481558
0.135324,0.090462,0.119944,0.033889,0.043319,0.486512,0.452931,0.509208
0.137674,0.090081,0.119334,0.034900,0.042957,0.488004,0.461085,0.517224
0.141230,0.089809,0.118191,0.036475,0.042303,0.484975,0.477372,0.536867
0.142907,0.090809,0.116171,0.038305,0.041265,0.479753,0.494419,0.559776
0.145081,0.093706,0.114550,0.039756,0.039896,0.474145,0.512275,0.582003
0.152162,0.099342,0.111244,0.044686,0.039843,0.465179,0.538662,0.608708
0.154856,0.101074,0.111213,0.046339,0.040535,0.465614,0.548863,0.616565
0.164229,0.104612,0.113540,0.050006,0.041120,0.460711,0.576796,0.648008
0.170277,0.106255,0.115432,0.051609,0.041244,0.453867,0.595246,0.670408
0.172807,0.107941,0.114501,0.052231,0.041107,0.451680,0.602805,0.680423
0.183861,0.113959,0.115028,0.057286,0.040345,0.457576,0.643142,0.699239
0.186886,0.115276,0.115719,0.058583,0.040202,0.465604,0.654123,0.703118
0.188113,0.116502,0.117014,0.059365,0.040335,0.472906,0.659245,0.705437
0.192996,0.123583,0.119664,0.059209,0.040113,0.493610,0.678708,0.712678
0.195668,0.124808,0.119565,0.059177,0.039813,0.499731,0.687433,0.718491
0.207936,0.130356,0.126147,0.059410,0.040445,0.517912,0.711326,0.744302
0.211451,0.132275,0.128641,0.059413,0.040547,0.521652,0.716157,0.746222
0.214674,0.134023,0.131340,0.059416,0.040634,0.523973,0.719619,0.747598
0.220440,0.139182,0.139167,0.059637,0.041621,0.529025,0.721551,0.754097
0.222700,0.142060,0.141198,0.059500,0.041833,0.532898,0.715492,0.755726
0.227283,0.146105,0.143255,0.059763,0.041630,0.527511,0.715892,0.756090
0.228921,0.149541,0.146468,0.060198,0.042085,0.521456,0.719783,0.757433
0.230022,0.153073,0.150848,0.060816,0.042976,0.518646,0.724934,0.754656
0.232273,0.154693,0.154653,0.060892,0.045084,0.519325,0.723388,0.752063
0.234289,0.155209,0.159050,0.060891,0.045741,0.520336,0.722744,0.752477
0.237763,0.160544,0.177053,0.058624,0.045315,0.517868,0.723438,0.743654
0.236806,0.161492,0.179268,0.057869,0.045817,0.515365,0.721876,0.738379
0.235190,0.163210,0.188069,0.056799,0.046414,0.515427,0.725667,0.733055
0.235419,0.165546,0.196288,0.056127,0.046682,0.523271,0.726331,0.727450
0.238254,0.169692,0.205808,0.055745,0.049088,0.536871,0.727743,0.722974
0.240380,0.171721,0.208089,0.055565,0.049492,0.536071,0.730188,0.723043
0.244321,0.179227,0.215817,0.056494,0.051127,0.524577,0.733738,0.724285
0.246244,0.182151,0.227957,0.056839,0.052930,0.509180,0.729036,0.719396
0.247480,0.181300,0.232060,0.057008,0.052890,0.506276,0.731870,0.718881
0.249488,0.179043,0.234549,0.057095,0.050916,0.497117,0.727455,0.719389
0.249661,0.179610,0.235009,0.057621,0.050382,0.492132,0.724259,0.711268
0.249554,0.178773,0.234800,0.058337,0.050341,0.490478,0.721752,0.702863
0.247565,0.175633,0.233145,0.058186,0.050267,0.492764,0.716262,0.693522
0.247687,0.174751,0.234400,0.058592,0.050248,0.493357,0.715429,0.691324
0.248157,0.174528,0.235739,0.058900,0.050555,0.492014,0.715537,0.691180
0.250805,0.172608,0.236159,0.059798,0.050885,0.488216,0.719669,0.685432
0.251562,0.170103,0.236490,0.059695,0.050776,0.478088,0.714500,0.679768
0.243589,0.169171,0.250201,0.058669,0.049495,0.440121,0.694547,0.646608
0.238309,0.167506,0.252179,0.057882,0.049069,0.426971,0.682540,0.628253
0.228695,0.163729,0.249053,0.057374,0.048744,0.415034,0.656078,0.598563
0.222925,0.162238,0.246556,0.057169,0.048259,0.408708,0.639622,0.575265
0.217357,0.160412,0.246622,0.056989,0.047874,0.404675,0.629299,0.554840
0.213732,0.158907,0.246833,0.056920,0.047724,0.403731,0.621974,0.545040
0.203008,0.153723,0.244239,0.056516,0.046689,0.394692,0.591149,0.513435
0.188413,0.148580,0.236419,0.057440,0.043293,0.374985,0.556199,0.478839
0.174656,0.149509,0.225414,0.059078,0.041491,0.371982,0.536721,0.445680
0.165601,0.148879,0.223962,0.059689,0.040657,0.373289,0.520710,0.423470
0.158110,0.146946,0.222582,0.059701,0.040760,0.383490,0.504096,0.402439
0.151406,0.145119,0.217073,0.058942,0.039817,0.392941,0.490229,0.382690
0.144693,0.142058,0.209981,0.057281,0.039208,0.393687,0.473165,0.360322
0.136156,0.138753,0.207668,0.055611,0.038106,0.385452,0.457556,0.338588
0.122467,0.135969,0.213285,0.053041,0.036060,0.382386,0.425566,0.310587
0.118053,0.134199,0.215020,0.052422,0.035475,0.384327,0.416280,0.300776
0.104942,0.131454,0.214835,0.048776,0.034511,0.399698,0.387922,0.253102
0.102718,0.131073,0.213894,0.048235,0.034455,0.407639,0.381044,0.242210
0.096706,0.130054,0.213875,0.046487,0.034883,0.423824,0.366992,0.219176
0.081564,0.131781,0.220001,0.040031,0.032993,0.449414,0.341908,0.173907
0.077167,0.131297,0.227653,0.038136,0.032539,0.457770,0.332161,0.156664
0.074360,0.130243,0.232033,0.036743,0.032038,0.461858,0.321556,0.141051
0.071648,0.132187,0.240711,0.033581,0.031267,0.466971,0.303164,0.112840
0.071023,0.133094,0.240731,0.033095,0.031472,0.470202,0.296621,0.106173
0.065652,0.139138,0.243865,0.031586,0.031918,0.482235,0.278493,0.087356
0.062912,0.142142,0.244935,0.031351,0.032199,0.491574,0.271216,0.077993
0.059991,0.140413,0.238876,0.030988,0.033714,0.509399,0.269457,0.068620
0.063196,0.139915,0.231746,0.031079,0.036406,0.532997,0.272899,0.061272
0.065382,0.140155,0.232643,0.031659,0.037602,0.542756,0.276076,0.060225
0.066822,0.141940,0.234597,0.031869,0.038199,0.548718,0.277649,0.059904
0.069106,0.144987,0.239469,0.032713,0.039253,0.561493,0.279024,0.059397
0.072208,0.149091,0.244357,0.034527,0.040549,0.569438,0.278332,0.060242
0.073465,0.152239,0.247837,0.034956,0.041206,0.574909,0.280348,0.060488
0.073902,0.153717,0.249671,0.035093,0.041542,0.579094,0.280738,0.060555
0.074663,0.157191,0.252735,0.034785,0.043482,0.590363,0.282243,0.060658
0.075273,0.157775,0.257080,0.033395,0.044631,0.597528,0.283040,0.060732
0.075568,0.157618,0.259119,0.032523,0.044917,0.598055,0.283072,0.060858
0.076956,0.155224,0.260834,0.031818,0.045187,0.568836,0.281279,0.061952
0.077067,0.155657,0.264191,0.031906,0.045013,0.563261,0.279442,0.061961
0.077498,0.156677,0.268713,0.031977,0.044742,0.554917,0.275560,0.061894
0.077868,0.156592,0.268741,0.031971,0.044663,0.551552,0.273382,0.061846
0.077981,0.154678,0.262137,0.031966,0.044280,0.549397,0.271009,0.061910
0.078166,0.153162,0.257780,0.031450,0.044724,0.548991,0.270909,0.061965
0.078281,0.151851,0.252995,0.031349,0.044324,0.549381,0.269379,0.061876
0.076849,0.146433,0.243071,0.031876,0.044474,0.531282,0.264819,0.061151
0.075662,0.144584,0.237437,0.032126,0.044426,0.522150,0.256567,0.059937
0.074305,0.140274,0.226870,0.032185,0.044392,0.515757,0.247071,0.059190
0.070749,0.139134,0.215242,0.031532,0.043900,0.508646,0.238732,0.059677
0.066125,0.139096,0.208428,0.031073,0.043547,0.504245,0.231480,0.060000
0.062130,0.138041,0.201541,0.031018,0.043180,0.499563,0.224902,0.059334
0.060277,0.136971,0.199083,0.031071,0.043132,0.498002,0.222516,0.058463
0.052730,0.132257,0.207416,0.030439,0.041724,0.484224,0.211236,0.057430
0.047841,0.124483,0.210477,0.029849,0.040265,0.464400,0.200196,0.058921
0.046638,0.122549,0.210540,0.029558,0.039859,0.459396,0.198122,0.059498
0.044871,0.120625,0.211138,0.030122,0.038508,0.450824,0.189317,0.060269
0.041609,0.120566,0.213499,0.030884,0.035823,0.439510,0.171012,0.061486
0.035735,0.119832,0.215265,0.031379,0.033057,0.427984,0.157412,0.064859
0.034453,0.119756,0.214493,0.031270,0.031985,0.422497,0.153664,0.066787
0.031462,0.116442,0.210492,0.031771,0.030311,0.405608,0.147503,0.073475
0.027642,0.112926,0.206114,0.030366,0.027989,0.384106,0.140008,0.085347
0.027092,0.111443,0.204417,0.029985,0.027443,0.377788,0.137622,0.090443
0.026660,0.108396,0.201257,0.029537,0.026255,0.364854,0.132372,0.103590
0.026151,0.102954,0.196118,0.029078,0.023451,0.340997,0.127939,0.116800
0.026751,0.098971,0.195413,0.029072,0.021730,0.332102,0.126880,0.127651
0.029661,0.096015,0.203714,0.027983,0.021152,0.338303,0.136638,0.148991
0.031742,0.093397,0.202722,0.026334,0.020759,0.352302,0.147068,0.162545
0.032620,0.091746,0.199113,0.025515,0.020545,0.364593,0.152110,0.169153
0.033427,0.092218,0.196036,0.024928,0.020329,0.376177,0.157134,0.177247
0.035291,0.093879,0.192975,0.024443,0.020041,0.384079,0.165905,0.191631
0.036161,0.094750,0.189558,0.024441,0.019253,0.376526,0.169627,0.202249
0.037785,0.096129,0.192258,0.024586,0.018223,0.367869,0.179654,0.215635
0.040371,0.096960,0.194437,0.025679,0.016604,0.360176,0.191636,0.229232
0.044194,0.097840,0.197923,0.026307,0.014950,0.348762,0.204562,0.243834
0.053669,0.099723,0.203152,0.027711,0.012781,0.345623,0.235661,0.277039
0.061380,0.096788,0.204847,0.029197,0.013102,0.358055,0.260352,0.300546
0.067281,0.093434,0.204913,0.030630,0.013034,0.361870,0.282538,0.321352
0.071753,0.091358,0.199998,0.032344,0.012829,0.361417,0.302151,0.338109
0.076030,0.090305,0.190495,0.033581,0.012758,0.363420,0.319882,0.355148
0.081152,0.089625,0.179183,0.034599,0.013103,0.362100,0.348594,0.378330
0.084771,0.089142,0.173437,0.034548,0.013567,0.359950,0.365541,0.394631
0.089465,0.088611,0.166997,0.034398,0.014169,0.358766,0.382723,0.410574
0.099202,0.086374,0.151679,0.033426,0.015744,0.368291,0.422338,0.454602
0.102187,0.085582,0.146598,0.032746,0.016293,0.377387,0.439228,0.471129
0.106995,0.083639,0.139774,0.031520,0.016840,0.394086,0.469207,0.485611
0.108618,0.083167,0.137060,0.031391,0.017344,0.400542,0.479986,0.489364
0.113583,0.081576,0.132991,0.030667,0.018988,0.423871,0.517008,0.501532
0.115606,0.081664,0.133458,0.030497,0.019407,0.432398,0.524071,0.505486
0.118840,0.081630,0.134629,0.030263,0.020596,0.446781,0.538930,0.514460
0.122084,0.081906,0.131533,0.030687,0.021203,0.448335,0.556257,0.522458
0.127008,0.083572,0.126957,0.031390,0.021305,0.447817,0.570490,0.531110
0.132799,0.085561,0.124654,0.032644,0.022394,0.450124,0.582861,0.537250
0.138978,0.088589,0.122333,0.033689,0.023558,0.452692,0.596574,0.545302
0.149895,0.091896,0.122074,0.035550,0.024943,0.453588,0.615976,0.561446
0.168826,0.095573,0.122261,0.040226,0.027813,0.459057,0.642005,0.585349
0.185932,0.101427,0.128659,0.047744,0.034004,0.466603,0.671011,0.612740
0.195403,0.104598,0.132631,0.052861,0.038558,0.473509,0.684729,0.624632
0.203851,0.108033,0.133621,0.059317,0.043589,0.490625,0.693948,0.637040
0.206117,0.110922,0.135018,0.061852,0.046943,0.504108,0.698253,0.640857
0.206879,0.112946,0.136071,0.063776,0.049706,0.512353,0.700623,0.639093
0.208512,0.118704,0.138905,0.066100,0.052284,0.513251,0.704046,0.639612
0.209592,0.121248,0.140672,0.066893,0.052944,0.511591,0.707334,0.643555
0.222263,0.130746,0.145918,0.067974,0.055354,0.522989,0.734374,0.661804
0.223635,0.132777,0.147755,0.067537,0.055731,0.529882,0.735774,0.661705
0.227188,0.135933,0.154174,0.066057,0.056636,0.544194,0.747103,0.662936
0.230760,0.138532,0.160073,0.065476,0.056995,0.561799,0.751247,0.665588
0.232717,0.139892,0.163293,0.065499,0.057150,0.572073,0.749628,0.667947
0.233508,0.138918,0.172870,0.065291,0.056845,0.576303,0.745085,0.663359
0.233658,0.138258,0.184557,0.065318,0.056834,0.575194,0.735509,0.655940
0.234374,0.138541,0.188291,0.065449,0.056685,0.574355,0.730282,0.655621
0.236913,0.139051,0.198147,0.065941,0.056537,0.562238,0.712898,0.649007
0.236841,0.140049,0.201830,0.066076,0.056217,0.559809,0.707115,0.650459
0.233985,0.146948,0.212434,0.066158,0.053904,0.552251,0.693209,0.645045
0.231866,0.148518,0.215746,0.065815,0.052648,0.547234,0.683341,0.637999
0.230919,0.149167,0.215983,0.065692,0.052051,0.547038,0.677072,0.634916
0.225444,0.151886,0.220883,0.065465,0.051039,0.552164,0.658443,0.619628
0.218444,0.151582,0.223458,0.064522,0.049973,0.548583,0.641542,0.607030
0.210945,0.150789,0.224757,0.063489,0.048825,0.541640,0.624028,0.593522
0.199247,0.150266,0.227283,0.061637,0.047567,0.541968,0.603234,0.572702
0.166462,0.145190,0.231439,0.054140,0.043930,0.538132,0.557868,0.511016
0.148827,0.139745,0.228048,0.045875,0.037708,0.535461,0.529997,0.473486
0.136735,0.135967,0.227562,0.038702,0.033650,0.525042,0.505442,0.441422
0.130639,0.132946,0.225438,0.036008,0.031242,0.515418,0.488530,0.423576
0.122735,0.131485,0.222339,0.032918,0.028651,0.498514,0.464577,0.403577
0.116565,0.128409,0.222878,0.031557,0.027109,0.493015,0.446160,0.385606
0.113580,0.126640,0.222761,0.031157,0.026474,0.493137,0.436603,0.376048
0.095686,0.122111,0.223555,0.030971,0.025405,0.485724,0.392202,0.331323
0.087270,0.120031,0.224676,0.031374,0.024965,0.484003,0.369141,0.311444
0.079390,0.118801,0.224066,0.031649,0.024818,0.479288,0.344273,0.289264
0.069456,0.119576,0.226032,0.031923,0.024450,0.466833,0.309228,0.254202
0.063182,0.119817,0.228321,0.031504,0.024319,0.460842,0.292582,0.231624
0.049828,0.120755,0.227209,0.032350,0.028679,0.460957,0.272308,0.191605
0.046280,0.123196,0.227304,0.032356,0.030363,0.462895,0.267998,0.174587
0.041607,0.128865,0.235070,0.032567,0.032266,0.478038,0.261090,0.143984
0.039233,0.133415,0.245738,0.033087,0.032888,0.489109,0.253483,0.127704
0.038183,0.137010,0.253757,0.034333,0.034034,0.496080,0.243085,0.109632
0.037786,0.139131,0.258688,0.035711,0.035458,0.502698,0.232300,0.092302
0.037224,0.140693,0.260216,0.037533,0.038006,0.508648,0.220203,0.077810
0.035470,0.142523,0.264386,0.039407,0.043709,0.521488,0.208149,0.060499
0.034177,0.146119,0.269016,0.039810,0.046305,0.525001,0.201242,0.051869
0.033444,0.147984,0.269338,0.039851,0.048837,0.523121,0.197465,0.045347
0.032856,0.149474,0.265026,0.039568,0.052065,0.530989,0.195999,0.040276
0.032332,0.150231,0.259945,0.039390,0.055940,0.542853,0.195158,0.035431
0.032176,0.150464,0.260603,0.039421,0.057805,0.541681,0.193879,0.033546
0.031888,0.151331,0.270827,0.038738,0.059393,0.536411,0.188676,0.032424
0.031990,0.151026,0.277818,0.038400,0.059478,0.531468,0.183033,0.032004
0.032473,0.151860,0.282015,0.038718,0.059333,0.526141,0.178462,0.031736
0.033216,0.152869,0.280197,0.039682,0.059606,0.521524,0.175369,0.031606
0.034251,0.154039,0.278213,0.040610,0.059705,0.512323,0.171052,0.030455
0.034381,0.153274,0.277995,0.040524,0.059592,0.510000,0.171115,0.030252
0.034519,0.151645,0.277514,0.040124,0.059417,0.511418,0.172056,0.029746
0.034658,0.151002,0.276389,0.039774,0.059319,0.512428,0.172227,0.029717
0.034802,0.149312,0.272464,0.038752,0.058401,0.510852,0.172495,0.028925
0.034887,0.147942,0.268816,0.039323,0.058074,0.510428,0.171274,0.027912
0.034889,0.147287,0.267236,0.038953,0.058238,0.507106,0.170855,0.027555
0.035114,0.145874,0.258940,0.038445,0.059188,0.490109,0.169303,0.030140
0.035444,0.144582,0.254788,0.038312,0.059382,0.482046,0.169115,0.034813
0.036369,0.142570,0.251471,0.038533,0.059596,0.472539,0.168184,0.039790
0.037575,0.140105,0.246653,0.039459,0.059292,0.456380,0.163083,0.050141
0.039483,0.138856,0.243492,0.039106,0.056819,0.442232,0.158924,0.057785
0.040468,0.137837,0.239717,0.039165,0.054761,0.432409,0.156951,0.066183
0.040849,0.138118,0.235393,0.040238,0.053644,0.420094,0.156216,0.073486
0.039792,0.134471,0.225259,0.041010,0.052768,0.404938,0.154716,0.081019
0.038346,0.130467,0.212195,0.041525,0.052099,0.389206,0.152445,0.086375
0.037549,0.128759,0.206780,0.041275,0.051460,0.381726,0.151270,0.089150
0.034098,0.126570,0.194887,0.039969,0.050108,0.357266,0.149759,0.098336
0.033105,0.125272,0.190789,0.039149,0.049062,0.348884,0.150233,0.104791
0.031765,0.115784,0.170347,0.036274,0.040947,0.313782,0.146377,0.145672
0.033021,0.113437,0.169809,0.036071,0.040116,0.310349,0.146092,0.150958
0.042350,0.108273,0.171700,0.035501,0.034166,0.283811,0.142093,0.183550
0.046921,0.108547,0.171917,0.035788,0.032091,0.270122,0.139022,0.198020
0.050843,0.108837,0.170435,0.036077,0.031804,0.266035,0.137549,0.205515
0.063920,0.109078,0.156422,0.037113,0.032648,0.258036,0.136170,0.232487
0.074444,0.109037,0.146080,0.037671,0.033755,0.255940,0.136101,0.251042
0.083816,0.109321,0.137367,0.037966,0.034712,0.253383,0.137806,0.268474
0.104778,0.114448,0.129235,0.038449,0.036503,0.253504,0.140248,0.293383
0.121879,0.118064,0.126388,0.038502,0.038126,0.258570,0.144078,0.308323
0.162708,0.128900,0.134192,0.039573,0.041372,0.265934,0.151645,0.332753
0.186072,0.136427,0.140524,0.039871,0.043692,0.265163,0.152940,0.347659
0.208877,0.143523,0.145929,0.039837,0.045079,0.260913,0.157854,0.367088
0.239592,0.157025,0.154227,0.039688,0.047632,0.255728,0.169676,0.397486
0.255138,0.168064,0.166012,0.040705,0.049246,0.256513,0.175608,0.414873
0.266562,0.179071,0.178798,0.041465,0.051672,0.260848,0.183806,0.432498
0.272327,0.184206,0.184677,0.042238,0.052614,0.263229,0.187693,0.438758
0.313635,0.216515,0.210940,0.044824,0.059758,0.285685,0.204128,0.473972
0.325745,0.227436,0.219994,0.044855,0.062553,0.293580,0.207099,0.480826
0.357288,0.250757,0.234101,0.045249,0.068793,0.316354,0.210078,0.487834
0.368638,0.258593,0.238671,0.045322,0.070691,0.324530,0.211275,0.492483
0.401234,0.288581,0.257352,0.046398,0.076057,0.345938,0.217929,0.503247
0.409650,0.297749,0.266455,0.046612,0.078164,0.352581,0.221654,0.507032
0.416990,0.305446,0.275069,0.046794,0.080346,0.358617,0.224995,0.511128
0.440032,0.322428,0.306317,0.049086,0.084681,0.375734,0.233860,0.518981
0.446962,0.326730,0.315629,0.050244,0.085773,0.381701,0.236839,0.520974
0.461015,0.335007,0.331011,0.052837,0.088672,0.394774,0.241517,0.525703
0.479362,0.348406,0.346220,0.057522,0.094170,0.412207,0.248439,0.527281
0.506013,0.362990,0.353597,0.063790,0.104512,0.438744,0.256754,0.535384
0.543442,0.391260,0.358202,0.074006,0.115634,0.462812,0.271267,0.539198
0.551126,0.396720,0.360045,0.076257,0.118040,0.467748,0.275923,0.540789
0.563315,0.408056,0.365722,0.080368,0.120813,0.476893,0.285788,0.540414
0.574455,0.423376,0.376358,0.084002,0.121955,0.483851,0.297861,0.538056
0.582685,0.437803,0.385701,0.085866,0.123003,0.491995,0.303273,0.541124
0.588286,0.448901,0.394618,0.087435,0.126329,0.504113,0.308308,0.542298
0.585384,0.470667,0.414113,0.086284,0.129550,0.520033,0.316942,0.543417
0.575702,0.476678,0.418360,0.085981,0.129576,0.529332,0.318894,0.544968
0.572087,0.478211,0.418381,0.086021,0.129694,0.536543,0.319622,0.547530
0.557193,0.482891,0.419429,0.087315,0.129816,0.550949,0.321435,0.546121
0.552340,0.488348,0.418512,0.087861,0.130199,0.560445,0.320165,0.542490
0.546936,0.489325,0.422226,0.086645,0.131087,0.567518,0.318416,0.534234
0.548065,0.488607,0.414714,0.084969,0.130777,0.565377,0.316473,0.532754
0.547839,0.486294,0.408298,0.083824,0.131880,0.568580,0.313982,0.536380
0.545811,0.484336,0.403932,0.083562,0.132487,0.570001,0.313720,0.537696
0.538380,0.479663,0.396954,0.082692,0.132687,0.570399,0.312766,0.539682
0.520477,0.465491,0.386612,0.080921,0.129718,0.568011,0.306221,0.530718
0.508997,0.457042,0.393594,0.080067,0.128901,0.567136,0.303730,0.525876
0.480306,0.439544,0.396331,0.078005,0.125638,0.553738,0.298076,0.514186
0.457731,0.420729,0.394956,0.075652,0.123313,0.546827,0.294194,0.503143
0.448132,0.410315,0.393426,0.074584,0.121510,0.544852,0.291208,0.497488
0.432758,0.394055,0.387139,0.073313,0.117819,0.541214,0.284046,0.486829
0.416555,0.381075,0.375557,0.071117,0.114959,0.536806,0.277160,0.476757
0.403197,0.370150,0.362831,0.068832,0.112468,0.529750,0.269480,0.461131
0.377442,0.351148,0.344329,0.064582,0.106742,0.515841,0.260106,0.425636
0.360265,0.341026,0.337293,0.060716,0.100911,0.510326,0.254293,0.408059
0.300489,0.305621,0.333834,0.050647,0.086096,0.502982,0.239973,0.362897
0.288972,0.299392,0.340344,0.047858,0.082940,0.502325,0.235082,0.353810
0.269246,0.287103,0.348211,0.044234,0.078702,0.500255,0.227677,0.337629
0.241041,0.269630,0.352920,0.041874,0.077607,0.504156,0.222733,0.314072
0.224946,0.255749,0.351275,0.040754,0.077934,0.508123,0.219601,0.296529
0.216262,0.249733,0.352906,0.040405,0.077125,0.508268,0.218221,0.286171
0.182510,0.228380,0.365745,0.038564,0.071298,0.506642,0.209726,0.250598
0.161400,0.213084,0.360238,0.037269,0.068921,0.514209,0.199491,0.228978
0.144385,0.198676,0.351736,0.036541,0.073674,0.515831,0.203954,0.207097
0.131468,0.191703,0.347602,0.037075,0.077446,0.518020,0.208711,0.193904
0.125543,0.186556,0.345462,0.037122,0.079403,0.520155,0.210601,0.185520
0.094237,0.164837,0.336885,0.037869,0.082727,0.522044,0.211950,0.156719
0.080993,0.157389,0.332721,0.038727,0.082726,0.527264,0.211622,0.144595
0.069784,0.148945,0.329084,0.039332,0.082039,0.534775,0.211467,0.127999
0.059848,0.141379,0.325212,0.039016,0.080446,0.541728,0.211535,0.107364
0.055494,0.138699,0.325701,0.038875,0.079107,0.544719,0.210877,0.097895
0.048146,0.134031,0.328025,0.039778,0.077292,0.553747,0.210931,0.081464
0.036122,0.124724,0.320280,0.045680,0.073855,0.586753,0.223228,0.055017
0.035478,0.122130,0.318246,0.046338,0.073282,0.593102,0.224851,0.052664
0.040088,0.120818,0.318267,0.048105,0.071733,0.611921,0.225842,0.047482
0.042235,0.121846,0.313324,0.048418,0.071256,0.612668,0.226679,0.045428
0.043988,0.123756,0.308736,0.048460,0.070848,0.611461,0.226914,0.044407
0.045178,0.125620,0.305813,0.049119,0.071218,0.611062,0.227124,0.043675
0.046126,0.127165,0.303863,0.049501,0.071693,0.610975,0.228805,0.043723
0.046488,0.127786,0.302627,0.049259,0.071701,0.612300,0.229247,0.043838
0.047508,0.131275,0.310034,0.049322,0.071610,0.611992,0.233623,0.044283
0.048462,0.134331,0.317092,0.050602,0.073154,0.614771,0.237202,0.044569
0.049705,0.137611,0.319101,0.051847,0.078221,0.620928,0.240999,0.044701
0.049893,0.138212,0.301970,0.052573,0.082388,0.620127,0.240846,0.044089
0.049821,0.136653,0.290669,0.051342,0.082185,0.612699,0.237287,0.043569
0.049744,0.135962,0.281246,0.050190,0.080032,0.606218,0.231070,0.042760
0.049153,0.136466,0.276326,0.050039,0.077704,0.600666,0.226646,0.041944
0.048923,0.135722,0.272826,0.049860,0.076891,0.597886,0.224745,0.041480
0.048345,0.134787,0.264206,0.049580,0.075621,0.591662,0.221590,0.041008
0.048043,0.130467,0.256267,0.050525,0.075428,0.593323,0.219608,0.041050
0.048398,0.126404,0.247251,0.054916,0.075490,0.591143,0.218594,0.042626
0.048338,0.125851,0.245007,0.056296,0.074288,0.587384,0.215388,0.042866
0.046349,0.125154,0.239993,0.059161,0.059123,0.561589,0.190927,0.042384
0.045909,0.126225,0.242656,0.058594,0.055582,0.563165,0.184991,0.040868
0.044842,0.128556,0.241499,0.056529,0.051517,0.562154,0.181329,0.039300
0.044558,0.129271,0.242618,0.056050,0.050197,0.561217,0.179863,0.038399
0.044226,0.130255,0.245851,0.055300,0.048216,0.556107,0.176923,0.036900
0.044281,0.130727,0.244570,0.053643,0.046112,0.543077,0.173739,0.035476
0.044684,0.130036,0.237996,0.050682,0.044640,0.521805,0.169093,0.033826
0.044608,0.131996,0.238684,0.047878,0.044070,0.507889,0.163524,0.032957
0.044302,0.134625,0.237555,0.045089,0.043768,0.500360,0.159291,0.032165
0.043300,0.134431,0.237090,0.044429,0.043818,0.496249,0.158788,0.031499
0.036200,0.132779,0.229182,0.043075,0.043769,0.482712,0.157735,0.029907
0.033720,0.129924,0.225317,0.043592,0.043928,0.479802,0.159135,0.029349
0.033416,0.128672,0.224051,0.043628,0.043712,0.479667,0.160185,0.029453
0.032425,0.125688,0.220162,0.043236,0.042605,0.477954,0.160853,0.028867
0.032557,0.128144,0.218550,0.044092,0.042121,0.477447,0.160178,0.030636
0.032854,0.128557,0.216222,0.044764,0.041933,0.478316,0.159450,0.031237
0.033195,0.128851,0.208776,0.043855,0.040203,0.473597,0.155969,0.032471
0.033255,0.127080,0.204651,0.042695,0.034383,0.460150,0.150480,0.035089
0.033384,0.126887,0.203179,0.042060,0.031149,0.454548,0.149112,0.037873
0.033453,0.127682,0.202899,0.041770,0.030383,0.453705,0.148465,0.039085
0.034296,0.128097,0.203322,0.040958,0.028722,0.445212,0.146732,0.043338
0.035529,0.128838,0.203612,0.040721,0.027906,0.444460,0.145820,0.045762
0.036606,0.128541,0.209631,0.040551,0.027244,0.447086,0.145987,0.047581
0.037715,0.129722,0.218457,0.039328,0.025807,0.440642,0.147369,0.049884
0.039604,0.132794,0.229250,0.034489,0.024071,0.429513,0.147729,0.052615
0.040163,0.132879,0.231696,0.033064,0.023397,0.429482,0.146958,0.053532
0.041152,0.132125,0.234423,0.030181,0.022530,0.433630,0.144084,0.056209
0.042072,0.129919,0.235210,0.027921,0.021334,0.435475,0.140554,0.059214
0.042645,0.128744,0.234109,0.027599,0.020860,0.433725,0.140106,0.060063
0.044117,0.128969,0.232596,0.027186,0.020061,0.427230,0.138848,0.061420
0.050016,0.129938,0.234550,0.028504,0.020838,0.419528,0.134274,0.066350
0.056844,0.132345,0.235605,0.029543,0.021210,0.420503,0.131862,0.072372
0.066823,0.136788,0.237477,0.030645,0.021662,0.421830,0.130952,0.077402
0.085244,0.145349,0.240222,0.033419,0.022773,0.424775,0.130245,0.082722
0.093659,0.150647,0.245041,0.034827,0.023819,0.427311,0.128487,0.089890
0.099596,0.152608,0.246787,0.036785,0.025219,0.431252,0.127246,0.095408
0.106629,0.155059,0.242746,0.039336,0.026175,0.424428,0.126128,0.101561
0.111324,0.158466,0.238105,0.040517,0.026369,0.425062,0.125100,0.106614
0.116214,0.160962,0.235013,0.042150,0.028033,0.433705,0.126616,0.113074
0.126822,0.169031,0.254225,0.043624,0.032204,0.444813,0.123989,0.122064
0.131836,0.171730,0.262100,0.044405,0.033105,0.448565,0.123204,0.125440
0.141051,0.177040,0.274518,0.046354,0.034512,0.461458,0.123153,0.131379
0.147500,0.181555,0.283888,0.046987,0.035583,0.472483,0.123334,0.134607
0.149848,0.183911,0.287741,0.047337,0.036587,0.476916,0.123266,0.135859
0.156492,0.191144,0.293935,0.048840,0.040105,0.486192,0.124884,0.141905
0.161281,0.198209,0.307313,0.050539,0.042991,0.499956,0.129890,0.145750
0.162639,0.202411,0.315106,0.052008,0.045452,0.505825,0.132132,0.146840
0.169205,0.219268,0.344112,0.059110,0.054968,0.528962,0.141315,0.155613
0.169504,0.221921,0.351217,0.059984,0.056404,0.535149,0.142924,0.156978
0.169907,0.227086,0.359913,0.063107,0.059520,0.546148,0.147350,0.160925
0.173397,0.229531,0.357215,0.065963,0.061055,0.548897,0.148472,0.162223
0.175726,0.234089,0.353119,0.070075,0.062058,0.552045,0.153583,0.161931
0.176472,0.237713,0.352029,0.071993,0.064573,0.558807,0.156278,0.161518
0.177118,0.243504,0.354104,0.073413,0.065937,0.565858,0.158750,0.163156
0.178551,0.253533,0.369643,0.073816,0.068849,0.580136,0.162669,0.165826
0.178359,0.253729,0.369301,0.073816,0.069293,0.584843,0.164770,0.166577
0.176837,0.253136,0.369004,0.073205,0.068927,0.588398,0.165063,0.165895
0.169408,0.251281,0.366952,0.071827,0.068133,0.586375,0.163469,0.159239
0.159692,0.249701,0.364341,0.070851,0.067905,0.581360,0.161222,0.155475
0.140745,0.244453,0.361413,0.068936,0.067760,0.573998,0.158007,0.151742
0.135894,0.243175,0.358161,0.068390,0.067500,0.575312,0.157278,0.148384
0.126938,0.239505,0.350366,0.066506,0.065944,0.581580,0.155477,0.139719
0.124928,0.239130,0.351457,0.065808,0.065122,0.583119,0.155504,0.137382
0.118478,0.238080,0.353872,0.064686,0.064472,0.587155,0.154667,0.130242
0.114612,0.236623,0.356008,0.063938,0.064468,0.592343,0.155315,0.125635
0.113084,0.236009,0.357293,0.063587,0.063826,0.593630,0.154583,0.123278
0.108102,0.230995,0.346688,0.061764,0.062123,0.601349,0.153725,0.117228
0.100018,0.228949,0.339839,0.060732,0.061166,0.607816,0.153513,0.112493
0.094836,0.227447,0.333953,0.059576,0.061048,0.611469,0.152969,0.109199
0.082462,0.222178,0.323969,0.056214,0.060843,0.614549,0.149559,0.100713
0.077454,0.215895,0.323109,0.054507,0.061457,0.611701,0.146015,0.096621
0.075421,0.211039,0.324275,0.053338,0.060220,0.610862,0.143762,0.093253
0.072876,0.203244,0.323142,0.051850,0.058427,0.603851,0.140308,0.091836
0.072504,0.200543,0.320110,0.051378,0.057583,0.601175,0.138460,0.091755
0.073185,0.190998,0.299409,0.045996,0.051005,0.591590,0.131101,0.091608
0.073590,0.181578,0.285432,0.041810,0.049735,0.586098,0.130374,0.084430
0.075323,0.177850,0.276621,0.039371,0.049384,0.580459,0.129457,0.080707
0.076449,0.175594,0.270248,0.037811,0.050690,0.575862,0.128516,0.077450
0.074175,0.174329,0.263959,0.035177,0.051728,0.575379,0.127696,0.075926
0.072154,0.172076,0.267662,0.032895,0.052544,0.580080,0.124272,0.076036
0.079542,0.163841,0.279978,0.031196,0.051475,0.567907,0.124598,0.076517
0.087141,0.160827,0.279879,0.031342,0.051792,0.568298,0.125955,0.078169
0.107679,0.155513,0.286853,0.030544,0.055145,0.569471,0.130256,0.083242
0.112506,0.152823,0.292050,0.030461,0.058018,0.573647,0.132288,0.084112
0.115873,0.149282,0.296436,0.030401,0.059928,0.578196,0.136050,0.084599
0.119232,0.150847,0.308143,0.030033,0.062678,0.580040,0.141670,0.085198
0.120018,0.151803,0.311763,0.029859,0.063621,0.576967,0.143065,0.085446
0.118657,0.149959,0.310677,0.028200,0.067975,0.578299,0.148143,0.085896
0.117927,0.149285,0.309344,0.028829,0.069709,0.582802,0.147867,0.086158
0.117557,0.149403,0.309610,0.029315,0.070792,0.584178,0.148104,0.086309
0.116702,0.149215,0.308443,0.030832,0.072144,0.579613,0.148577,0.085871
0.116549,0.149669,0.311596,0.031897,0.072940,0.564612,0.148914,0.084762
0.116822,0.150345,0.313837,0.032187,0.072907,0.558889,0.148912,0.084464
0.117289,0.151271,0.313850,0.032790,0.072061,0.541954,0.150084,0.084281
0.116374,0.150227,0.309804,0.033028,0.070850,0.530817,0.151816,0.083892
0.115660,0.150764,0.305484,0.033575,0.069908,0.519922,0.152179,0.082946
0.115471,0.150937,0.304663,0.033681,0.069049,0.512392,0.153223,0.079929
0.114026,0.151280,0.304675,0.033770,0.068593,0.505638,0.154412,0.076331
0.109449,0.147296,0.301361,0.035965,0.069876,0.505964,0.155683,0.069638
0.107470,0.146592,0.299439,0.036620,0.067710,0.504708,0.153771,0.067106
0.104961,0.144458,0.293866,0.036379,0.066163,0.502282,0.153029,0.065027
0.102437,0.142079,0.287982,0.035614,0.063535,0.501153,0.151778,0.063457
0.100291,0.141129,0.284203,0.035066,0.061406,0.495914,0.150665,0.061122
0.099455,0.139933,0.279986,0.034947,0.060631,0.492451,0.149808,0.059618
0.095948,0.137012,0.263419,0.033998,0.058049,0.477415,0.145711,0.056370
0.090721,0.134739,0.252542,0.032841,0.056600,0.468875,0.141934,0.052341
0.086258,0.133930,0.248220,0.031874,0.056037,0.463059,0.139957,0.049465
0.060851,0.124631,0.223651,0.031655,0.049984,0.425834,0.126524,0.034466
0.053887,0.121992,0.210787,0.031664,0.048386,0.430452,0.124413,0.031385
0.044762,0.118728,0.193132,0.031461,0.043915,0.430135,0.121161,0.027029
0.040512,0.116732,0.184597,0.031325,0.041409,0.430112,0.117786,0.024868
0.038863,0.114245,0.179707,0.031107,0.040010,0.431949,0.116054,0.023808
0.035242,0.105357,0.165126,0.031156,0.036314,0.440615,0.110847,0.021509
0.033834,0.100177,0.157858,0.032121,0.034876,0.444448,0.108489,0.020333
0.033262,0.098328,0.155507,0.032769,0.034281,0.443445,0.107991,0.019877
0.032266,0.095827,0.153044,0.033980,0.032941,0.433441,0.106160,0.019192
0.031595,0.094794,0.150121,0.034411,0.029590,0.409879,0.103468,0.017645
0.033508,0.096042,0.148236,0.033726,0.026473,0.394796,0.101437,0.017759
0.035187,0.096566,0.146969,0.033158,0.025272,0.390088,0.100911,0.018068
0.037185,0.096750,0.146418,0.032677,0.024255,0.386318,0.100398,0.018330
0.040303,0.095984,0.145104,0.032255,0.021750,0.382971,0.099946,0.018606
0.042173,0.093501,0.136465,0.032193,0.019914,0.385705,0.100169,0.018558
0.042343,0.091571,0.131617,0.032125,0.019202,0.386439,0.101040,0.018562
0.042234,0.089804,0.127465,0.032067,0.018638,0.386365,0.101619,0.018298
0.042187,0.086982,0.120522,0.031903,0.017755,0.386006,0.103131,0.017811
0.041473,0.080862,0.106214,0.031406,0.016868,0.387313,0.108892,0.019882
0.039652,0.079526,0.098691,0.031163,0.016490,0.389618,0.110472,0.020412
0.037074,0.075737,0.089319,0.029227,0.013407,0.385082,0.110406,0.021967
0.037063,0.074570,0.087848,0.028718,0.012650,0.383887,0.110516,0.022667
0.040286,0.071985,0.084075,0.027393,0.011009,0.380065,0.110146,0.025006
0.045376,0.070803,0.082390,0.027306,0.010624,0.375824,0.110525,0.026201
0.050734,0.068266,0.081061,0.027346,0.010636,0.372490,0.111943,0.027455
0.056699,0.063646,0.079292,0.027793,0.010432,0.369850,0.112012,0.029041
0.059596,0.060795,0.080072,0.028323,0.010350,0.369885,0.112913,0.029269
0.061726,0.059355,0.080707,0.029230,0.010292,0.371924,0.114592,0.029381
0.074557,0.056627,0.083694,0.029091,0.011063,0.391701,0.129382,0.030656
0.085586,0.057181,0.086332,0.029019,0.011721,0.388621,0.135470,0.031813
0.112100,0.061569,0.093448,0.029351,0.012187,0.376758,0.140541,0.035471
0.137217,0.065652,0.096753,0.029719,0.012548,0.379193,0.145512,0.040277
0.144272,0.066672,0.097227,0.029806,0.013110,0.378872,0.146757,0.041421
0.160768,0.069833,0.098353,0.030994,0.015011,0.374018,0.151129,0.043856
0.169182,0.071658,0.100159,0.031658,0.015779,0.371950,0.154845,0.045483
0.184789,0.076318,0.106946,0.034519,0.018051,0.377103,0.163195,0.050763
0.193915,0.077965,0.110193,0.035931,0.019593,0.389300,0.167543,0.053247
0.208842,0.077727,0.111894,0.037779,0.020898,0.404435,0.170462,0.055166
0.222111,0.077226,0.113566,0.040665,0.022589,0.416044,0.174165,0.058559
0.228406,0.077936,0.112614,0.041922,0.024034,0.422360,0.176053,0.060833
0.233745,0.078678,0.112666,0.043119,0.026008,0.428936,0.178105,0.062462
0.238886,0.079106,0.113604,0.044243,0.027384,0.437460,0.179646,0.063770
0.243293,0.079332,0.113508,0.045650,0.028912,0.451024,0.179117,0.064547
0.246271,0.079541,0.114039,0.046311,0.031115,0.460986,0.176973,0.063939
0.256311,0.079391,0.114263,0.046473,0.033156,0.468630,0.174987,0.065445
0.267032,0.078452,0.117657,0.047498,0.034340,0.469338,0.176936,0.070549
0.272473,0.079079,0.119586,0.048438,0.034998,0.473801,0.178102,0.072681
0.279047,0.079106,0.122057,0.049751,0.036256,0.478413,0.178907,0.074060
0.280326,0.079960,0.122625,0.050201,0.036717,0.479699,0.179858,0.074728
0.281035,0.081107,0.122873,0.050457,0.037106,0.480684,0.180047,0.075426
0.279047,0.083497,0.123413,0.050588,0.037533,0.481466,0.180096,0.077006
0.278009,0.084115,0.123540,0.050589,0.037657,0.482819,0.180661,0.077443
0.277686,0.085874,0.124089,0.050217,0.038030,0.489154,0.181829,0.078133
0.278147,0.089833,0.126305,0.049238,0.038355,0.497563,0.182183,0.078109
0.278963,0.093790,0.128210,0.048992,0.038573,0.507018,0.182584,0.078430
0.278751,0.096845,0.129029,0.049302,0.038730,0.513440,0.181759,0.078642
0.272996,0.100739,0.128885,0.049401,0.038422,0.509655,0.175137,0.079594
0.260440,0.104653,0.127404,0.049826,0.037688,0.509888,0.167362,0.079793
0.234735,0.104698,0.122916,0.049447,0.037260,0.522151,0.164005,0.077764
0.217606,0.103511,0.124887,0.049165,0.037074,0.521924,0.161887,0.075462
0.209970,0.103467,0.128037,0.049737,0.036981,0.520875,0.160429,0.074602
0.191737,0.104959,0.135754,0.051131,0.036197,0.515322,0.157327,0.075507
0.181344,0.104868,0.139949,0.049432,0.034687,0.516721,0.153497,0.075928
0.175927,0.104636,0.141523,0.048001,0.034860,0.525882,0.152394,0.074688
0.167667,0.102840,0.136249,0.043896,0.033324,0.525390,0.147732,0.072654
0.156671,0.102075,0.127069,0.038943,0.031719,0.503988,0.144732,0.071116
0.154073,0.101638,0.124441,0.037515,0.030896,0.504514,0.144811,0.069489
0.153003,0.101088,0.123955,0.036026,0.029447,0.499262,0.143197,0.068664
0.151471,0.100459,0.123032,0.035041,0.028017,0.491862,0.140518,0.069842
0.154861,0.099914,0.122681,0.034252,0.027275,0.481854,0.138164,0.071072
0.160328,0.100524,0.124517,0.034280,0.025673,0.472672,0.136077,0.072948
0.164777,0.103195,0.126375,0.034332,0.023075,0.470542,0.134913,0.075699
0.164179,0.109032,0.126636,0.034074,0.022036,0.476208,0.128619,0.073701
0.165259,0.111304,0.126715,0.033968,0.021790,0.476262,0.126606,0.073391
0.166614,0.113106,0.127973,0.033768,0.021480,0.473219,0.124712,0.073662
0.177560,0.120040,0.129356,0.032856,0.019960,0.470026,0.118568,0.079561
0.180894,0.120297,0.129520,0.032214,0.019109,0.478416,0.117180,0.088104
0.185983,0.119973,0.130338,0.031689,0.018486,0.489076,0.117808,0.094950
0.195726,0.118935,0.133751,0.031669,0.018161,0.494586,0.117361,0.104316
0.198541,0.117828,0.134118,0.031746,0.018251,0.491759,0.118261,0.105858
0.206696,0.114639,0.136844,0.031742,0.018445,0.484919,0.120243,0.109736
0.215107,0.113475,0.138659,0.031672,0.018530,0.485990,0.121873,0.112694
0.222923,0.112959,0.140435,0.031655,0.018591,0.487773,0.123399,0.115883
0.243762,0.107573,0.141531,0.030354,0.018226,0.484652,0.123114,0.123704
0.252292,0.104014,0.140130,0.030063,0.018026,0.472791,0.120125,0.125986
0.256140,0.101931,0.139917,0.029594,0.018391,0.467194,0.119052,0.126623
0.259099,0.099275,0.141442,0.029111,0.018491,0.465600,0.118582,0.125559
0.261948,0.102401,0.140461,0.029062,0.019079,0.460454,0.120081,0.123836
0.262370,0.104047,0.139637,0.029620,0.018460,0.451071,0.119408,0.124542
0.262277,0.104638,0.138844,0.029768,0.018220,0.448375,0.118620,0.124613
0.244665,0.102673,0.137970,0.030122,0.017060,0.436672,0.115005,0.122120
0.238374,0.100268,0.138307,0.030174,0.016584,0.431589,0.111929,0.121157
0.232023,0.098496,0.141127,0.030225,0.016315,0.424449,0.108572,0.120887
0.233361,0.098087,0.141961,0.029250,0.016225,0.422744,0.108551,0.119287
0.232243,0.098732,0.142285,0.029053,0.016190,0.422683,0.109058,0.118564
0.226028,0.099230,0.139617,0.027226,0.016230,0.431246,0.111125,0.115849
0.220521,0.098735,0.137714,0.026097,0.016370,0.432122,0.112096,0.112677
0.214068,0.094681,0.134077,0.025017,0.016122,0.423952,0.113109,0.108367
0.210151,0.091783,0.132531,0.025098,0.016005,0.423540,0.113522,0.106892
0.203113,0.087453,0.130046,0.024674,0.015929,0.421240,0.114417,0.103009
0.183834,0.080875,0.132894,0.024357,0.016386,0.417170,0.116688,0.091437
0.171915,0.080327,0.137179,0.024343,0.016596,0.402239,0.116275,0.075674
0.162269,0.080486,0.139366,0.024412,0.016387,0.391737,0.114936,0.068033
0.150452,0.081452,0.142147,0.023925,0.015439,0.378200,0.112746,0.059960
0.140988,0.081526,0.138610,0.023825,0.014588,0.373974,0.110896,0.056186
0.132425,0.080085,0.135077,0.023057,0.013978,0.367803,0.108556,0.052798
0.122230,0.078222,0.133108,0.022134,0.014020,0.361656,0.106095,0.049075
0.103783,0.074820,0.133952,0.021038,0.014646,0.359471,0.101636,0.040012
0.091389,0.073169,0.138021,0.020873,0.015223,0.358759,0.101508,0.035318
0.088119,0.073076,0.139697,0.020741,0.015598,0.359695,0.102083,0.034151
0.083012,0.073838,0.142331,0.020622,0.016115,0.358636,0.102314,0.032326
0.079281,0.074884,0.136639,0.021042,0.015724,0.359646,0.101623,0.030464
0.077203,0.075512,0.132644,0.021162,0.015218,0.367605,0.100650,0.029466
0.075196,0.072408,0.129415,0.021492,0.014693,0.373768,0.098616,0.028735
0.073288,0.068358,0.127664,0.021560,0.014299,0.378608,0.095273,0.026442
0.072809,0.067243,0.127853,0.021540,0.014497,0.378029,0.094220,0.025784
0.072215,0.066017,0.128225,0.021530,0.014665,0.376843,0.092907,0.025225
0.071279,0.063656,0.128806,0.021513,0.014944,0.380354,0.090753,0.025543
0.071604,0.062454,0.129301,0.021771,0.015036,0.383706,0.090363,0.025594
0.069408,0.061730,0.127617,0.021522,0.014799,0.383215,0.089549,0.024916
0.067051,0.061017,0.126111,0.021439,0.014665,0.379656,0.089454,0.023806
0.060700,0.060006,0.125549,0.022549,0.014655,0.375134,0.088540,0.023206
0.051802,0.056725,0.126290,0.023583,0.014299,0.363030,0.086269,0.022367
0.049236,0.055821,0.126641,0.023834,0.014026,0.358945,0.085725,0.022237
0.045226,0.054182,0.127056,0.024376,0.014008,0.355166,0.084419,0.022286
0.042394,0.053138,0.128156,0.024408,0.014006,0.354828,0.084156,0.023945
0.039902,0.052888,0.131643,0.024704,0.013989,0.353656,0.083736,0.028217
0.039171,0.051925,0.130399,0.024711,0.013664,0.353668,0.083605,0.029802
0.039224,0.051113,0.128598,0.025079,0.013809,0.349503,0.083629,0.030580
0.039468,0.050046,0.127652,0.025813,0.014191,0.348350,0.083273,0.030773
0.039962,0.046675,0.122431,0.029586,0.015217,0.345870,0.082089,0.030631
0.040068,0.045062,0.118459,0.032341,0.015523,0.347595,0.081757,0.030505
0.040250,0.044459,0.115687,0.033963,0.015642,0.350525,0.082142,0.030636
0.041666,0.043673,0.111410,0.039035,0.016804,0.363806,0.083712,0.032117
0.042369,0.043087,0.109351,0.042215,0.017582,0.376752,0.085808,0.033221
0.042531,0.042860,0.107784,0.043381,0.017478,0.380673,0.086718,0.033884
0.043582,0.041996,0.103947,0.049536,0.018281,0.398723,0.090355,0.035752
0.044225,0.040915,0.094441,0.060244,0.019362,0.410440,0.094340,0.038014
0.043918,0.040782,0.091892,0.070392,0.020238,0.415185,0.099218,0.040648
0.044302,0.040394,0.096631,0.085487,0.020620,0.415457,0.108468,0.043681
0.044998,0.039901,0.102469,0.094120,0.021457,0.417377,0.115190,0.045396
0.045757,0.040090,0.107984,0.103023,0.022654,0.419648,0.124395,0.046899
0.048327,0.039574,0.120352,0.128681,0.026896,0.437157,0.150647,0.048568
0.048302,0.038924,0.121864,0.131176,0.027469,0.442291,0.155109,0.048575
0.048102,0.037731,0.125829,0.137231,0.031072,0.457460,0.171942,0.049556
0.048156,0.037555,0.126758,0.139906,0.032051,0.461408,0.176906,0.050115
0.049828,0.039120,0.132148,0.157244,0.036572,0.469088,0.197990,0.050942
0.050530,0.040160,0.133814,0.163035,0.038006,0.468078,0.202933,0.051958
0.050924,0.041351,0.134480,0.167101,0.038910,0.467877,0.207440,0.051947
0.051106,0.042243,0.135102,0.170377,0.039991,0.471399,0.210410,0.050748
0.050785,0.042385,0.134007,0.174518,0.040920,0.474003,0.213439,0.049528
0.050438,0.042189,0.133218,0.178957,0.041858,0.475810,0.216038,0.048639
0.049994,0.042115,0.134718,0.183577,0.042376,0.474937,0.218285,0.047989
0.048967,0.044150,0.137542,0.185286,0.041833,0.484205,0.219869,0.047754
0.048580,0.044634,0.138213,0.185228,0.041733,0.488855,0.220828,0.047940
0.049032,0.048921,0.143699,0.184222,0.041630,0.494487,0.223106,0.048219
0.049602,0.058418,0.156485,0.182176,0.042298,0.492737,0.226559,0.048512
0.049628,0.062965,0.162072,0.180167,0.042068,0.485769,0.226602,0.047546
0.050802,0.071755,0.170072,0.176904,0.041353,0.456467,0.224374,0.046415
0.051525,0.074893,0.171433,0.174796,0.041131,0.438019,0.223492,0.046097
0.051630,0.076110,0.171960,0.173523,0.040479,0.429530,0.223426,0.045926
0.051211,0.079342,0.178340,0.170036,0.038856,0.407291,0.221712,0.044201
0.050175,0.080500,0.183939,0.165404,0.037600,0.394580,0.219918,0.043085
0.047233,0.081502,0.185244,0.146334,0.035007,0.387730,0.210279,0.038510
0.046725,0.081275,0.182690,0.136593,0.034703,0.385294,0.204175,0.036312
0.046392,0.081169,0.179940,0.132877,0.034485,0.384670,0.201227,0.035308
0.046266,0.081048,0.170751,0.118852,0.032186,0.380621,0.188586,0.032464
0.048069,0.081243,0.163978,0.109551,0.030155,0.371555,0.179264,0.031628
0.049537,0.081698,0.159088,0.100356,0.028076,0.363736,0.171732,0.031315
0.058650,0.082586,0.154351,0.091182,0.026576,0.357309,0.160698,0.032997
0.084714,0.084050,0.147951,0.080360,0.022058,0.350236,0.146455,0.036928
0.092756,0.084009,0.141462,0.070246,0.019425,0.350913,0.140109,0.037280
0.096621,0.083668,0.140364,0.065210,0.018938,0.353302,0.137473,0.037698
0.099897,0.083616,0.138842,0.059558,0.018378,0.359668,0.134901,0.037127
0.105274,0.083629,0.137912,0.054240,0.017784,0.361088,0.133496,0.036474
0.109563,0.083482,0.136179,0.050848,0.017475,0.356144,0.133630,0.035755
0.113752,0.083901,0.135662,0.046901,0.016800,0.350663,0.132645,0.036421
0.117411,0.085951,0.135079,0.041226,0.016622,0.355294,0.129784,0.037919
0.119805,0.086374,0.137611,0.038647,0.016857,0.357074,0.128987,0.038513
0.123668,0.085674,0.142641,0.035800,0.016802,0.349407,0.125590,0.040546
0.124019,0.084511,0.141015,0.035466,0.016773,0.348924,0.124100,0.040683
0.124328,0.081123,0.138127,0.034374,0.016252,0.349738,0.122026,0.041257
0.127167,0.077817,0.135315,0.032971,0.016153,0.352018,0.121446,0.044111
0.132234,0.074491,0.135385,0.031228,0.016650,0.364789,0.124428,0.048540
0.135786,0.074431,0.137989,0.030431,0.017267,0.377311,0.127381,0.052448
0.145324,0.074871,0.139901,0.029638,0.017880,0.403225,0.132541,0.060121
0.153868,0.074636,0.138552,0.028895,0.018148,0.415913,0.135460,0.065602
0.166189,0.075839,0.130331,0.027401,0.018478,0.435027,0.141560,0.074731
0.170453,0.076758,0.128500,0.026732,0.018873,0.435430,0.143584,0.078816
0.173658,0.077011,0.127135,0.026635,0.019282,0.433478,0.145461,0.082013
0.176603,0.079289,0.123787,0.025846,0.019413,0.423727,0.146677,0.088484
0.177439,0.081028,0.122193,0.025381,0.019829,0.422376,0.147724,0.091956
0.176335,0.082013,0.121104,0.025328,0.020049,0.419048,0.149072,0.094107
0.170454,0.083506,0.117421,0.024998,0.020152,0.410623,0.151219,0.094474
0.166695,0.084454,0.116465,0.024974,0.019876,0.409028,0.150934,0.093867
0.161991,0.085092,0.115656,0.025082,0.019517,0.408213,0.149594,0.093021
0.139681,0.087163,0.118536,0.023814,0.018498,0.405253,0.142774,0.087621
0.134415,0.087912,0.120356,0.023684,0.018351,0.403606,0.141524,0.086339
0.130885,0.089382,0.122119,0.023354,0.018379,0.402401,0.140121,0.085421
0.127255,0.091455,0.125066,0.022998,0.017032,0.396908,0.138665,0.084725
0.125036,0.091651,0.126080,0.022319,0.016190,0.391346,0.137359,0.084243
0.123663,0.091678,0.126219,0.022267,0.015840,0.389349,0.136564,0.084054
0.117605,0.091985,0.127909,0.021292,0.016111,0.396184,0.135589,0.083777
0.114342,0.092321,0.128200,0.021322,0.017432,0.408367,0.135389,0.083004
0.112140,0.091605,0.127239,0.021631,0.018256,0.414602,0.136624,0.081854
0.111745,0.091219,0.124263,0.022187,0.018333,0.418178,0.137799,0.081368
0.111265,0.090507,0.119099,0.021951,0.018406,0.422799,0.138885,0.080759
0.110010,0.087372,0.111094,0.020960,0.018520,0.424800,0.148524,0.082261
0.110399,0.085622,0.105518,0.020547,0.018307,0.419883,0.151349,0.087598
0.108035,0.084264,0.100214,0.020021,0.017846,0.414420,0.151329,0.092170
0.105051,0.082171,0.092350,0.019424,0.016789,0.399245,0.151416,0.098944
0.101158,0.079133,0.090054,0.019080,0.015928,0.389070,0.150918,0.100388
0.091014,0.075841,0.089825,0.019174,0.015071,0.376443,0.150038,0.099643
0.086534,0.075142,0.090564,0.019298,0.014868,0.373095,0.149615,0.099175
0.072636,0.073275,0.095923,0.019643,0.014447,0.364461,0.150138,0.105434
0.071183,0.072557,0.095999,0.019670,0.014416,0.363804,0.151343,0.107709
0.069079,0.071183,0.097026,0.019823,0.013821,0.362157,0.154551,0.112460
0.069478,0.070116,0.100131,0.019627,0.013229,0.360138,0.164594,0.124097
0.070351,0.069218,0.101228,0.019657,0.013089,0.358643,0.170518,0.127407
0.072508,0.068068,0.104193,0.019573,0.012606,0.352900,0.183712,0.134743
0.074618,0.067846,0.106650,0.019166,0.012220,0.348910,0.196891,0.145119
0.078506,0.068333,0.111864,0.019519,0.012120,0.345314,0.215568,0.164899
0.080549,0.069110,0.119338,0.021281,0.012316,0.344080,0.232921,0.179819
0.081335,0.069497,0.122719,0.021927,0.012444,0.341098,0.241321,0.188508
0.080605,0.069830,0.126088,0.024273,0.014716,0.325813,0.281093,0.241826
0.078792,0.068886,0.126956,0.024668,0.015565,0.327869,0.294734,0.260432
0.077143,0.067446,0.124895,0.025288,0.016658,0.332893,0.310914,0.284349
0.077844,0.066828,0.123891,0.026512,0.017024,0.334089,0.323837,0.305661
0.079132,0.067036,0.124745,0.027017,0.017115,0.334649,0.330543,0.316666
0.081486,0.067995,0.129816,0.027805,0.016590,0.328754,0.345245,0.335753
0.084170,0.070931,0.137156,0.028229,0.015215,0.318611,0.361958,0.352890
0.086557,0.074423,0.143034,0.028656,0.013948,0.304108,0.377166,0.368069
0.088045,0.077747,0.152260,0.028637,0.012800,0.301661,0.402372,0.384418
0.087495,0.079350,0.154865,0.028868,0.012302,0.305758,0.417152,0.395093
0.087389,0.079915,0.155540,0.029055,0.012160,0.307898,0.422189,0.401261
0.086026,0.082353,0.165428,0.029869,0.015348,0.330927,0.473665,0.432408
0.084953,0.086151,0.168446,0.030546,0.016046,0.347805,0.501877,0.461443
0.084926,0.086940,0.168966,0.030666,0.016160,0.346674,0.508647,0.468851
0.086068,0.087890,0.168395,0.030827,0.017122,0.344537,0.523312,0.480452
0.088087,0.088523,0.169512,0.030828,0.017812,0.342607,0.539732,0.491750
0.095721,0.091058,0.170026,0.032713,0.019723,0.336309,0.564260,0.515738
0.098877,0.092499,0.171243,0.033710,0.021348,0.334338,0.572023,0.520887
0.110923,0.096175,0.183308,0.038689,0.029449,0.343185,0.600494,0.540325
0.113381,0.096563,0.188870,0.039594,0.033054,0.360628,0.609291,0.543267
0.116214,0.099282,0.195249,0.041269,0.038607,0.400921,0.622541,0.558530
0.116995,0.100359,0.196972,0.041756,0.039636,0.411212,0.626660,0.564172
0.119741,0.102895,0.199069,0.041515,0.041584,0.434822,0.639926,0.574256
0.126222,0.104681,0.199866,0.038641,0.042828,0.444883,0.642658,0.573822
0.131537,0.107889,0.210963,0.037578,0.044219,0.451052,0.647626,0.573668
0.135106,0.110874,0.224153,0.037053,0.045588,0.456957,0.654226,0.578868
0.138389,0.113651,0.232968,0.036672,0.046404,0.459020,0.660425,0.580370
0.143095,0.115819,0.239096,0.036633,0.047703,0.455733,0.668585,0.582351
0.152051,0.121074,0.259184,0.036687,0.056836,0.467358,0.689021,0.595170
0.155618,0.124258,0.261946,0.036406,0.060377,0.477052,0.692570,0.596722
0.160539,0.126335,0.263484,0.036773,0.063878,0.485531,0.698101,0.599950
0.167528,0.128560,0.269340,0.037681,0.068467,0.505036,0.695807,0.610979
0.170508,0.132747,0.272894,0.038148,0.069838,0.505871,0.687674,0.621285
0.175081,0.136788,0.277629,0.038146,0.070821,0.501146,0.686508,0.627404
0.180512,0.141044,0.282618,0.037963,0.071118,0.499998,0.687483,0.630674
0.189639,0.147545,0.289334,0.038498,0.071050,0.507184,0.690220,0.639035
0.205499,0.152032,0.292433,0.040987,0.073911,0.525550,0.686105,0.641529
0.208999,0.151829,0.292573,0.041484,0.074622,0.527961,0.683463,0.639496
0.212160,0.151603,0.293673,0.041713,0.075627,0.531160,0.681023,0.634793
0.220075,0.152155,0.295478,0.042435,0.079214,0.546479,0.666119,0.615294
0.221426,0.153796,0.293990,0.043214,0.080343,0.551608,0.656271,0.605534
0.219874,0.154149,0.291072,0.043447,0.081058,0.557212,0.643231,0.591114
0.213747,0.152438,0.287335,0.042500,0.079227,0.561076,0.620648,0.563823
0.210868,0.151608,0.286391,0.041176,0.077312,0.562708,0.611379,0.555770
0.204269,0.150072,0.279778,0.039175,0.074222,0.554854,0.596775,0.539231
0.196200,0.149146,0.274217,0.037613,0.069091,0.527308,0.573857,0.517968
0.191642,0.154392,0.276398,0.037227,0.066397,0.507601,0.555349,0.502563
0.186041,0.156966,0.280498,0.036645,0.063853,0.486992,0.536478,0.483809
0.181702,0.158687,0.285331,0.036151,0.062340,0.471549,0.515817,0.462174
0.172313,0.159554,0.292015,0.035626,0.062786,0.459653,0.488940,0.434666
0.166003,0.159470,0.290050,0.035356,0.063287,0.457208,0.472163,0.420496
0.158907,0.157347,0.279013,0.034815,0.062831,0.461020,0.454294,0.403763
0.153837,0.157819,0.267313,0.034234,0.062623,0.467714,0.434290,0.382505
0.149425,0.158859,0.261867,0.033829,0.063198,0.474620,0.416413,0.362289
0.143979,0.159779,0.258648,0.033207,0.062828,0.480115,0.396277,0.342072
0.123927,0.160372,0.244743,0.030028,0.054550,0.478390,0.333931,0.263277
0.119923,0.159776,0.243039,0.029232,0.053021,0.476186,0.323248,0.251426
0.115615,0.159878,0.243031,0.028558,0.051781,0.476529,0.313317,0.241470
0.108179,0.162355,0.247133,0.027709,0.049604,0.473259,0.300394,0.220402
0.100154,0.161943,0.249127,0.028087,0.047179,0.466629,0.284526,0.190168
0.095002,0.158869,0.251518,0.028735,0.046162,0.460958,0.274738,0.170916
0.087878,0.156880,0.251101,0.030379,0.045778,0.455810,0.254308,0.148347
0.082968,0.155233,0.251692,0.031311,0.045372,0.454269,0.238232,0.131828
0.076141,0.154838,0.257359,0.032041,0.043884,0.445874,0.218866,0.113569
0.068090,0.154865,0.261209,0.032443,0.041764,0.434599,0.205156,0.099847
0.049826,0.155162,0.268508,0.033992,0.036792,0.415270,0.174653,0.063638
0.048138,0.154936,0.270858,0.034585,0.035701,0.412089,0.170755,0.060475
0.045705,0.158569,0.288208,0.034974,0.034362,0.408519,0.163428,0.053927
0.044987,0.162301,0.299309,0.034510,0.033898,0.409034,0.160062,0.051029
0.044161,0.165042,0.305924,0.034323,0.033440,0.407385,0.157098,0.048762
0.043576,0.169099,0.311946,0.034070,0.033038,0.405988,0.154056,0.046879
0.043368,0.170400,0.313841,0.033913,0.033004,0.406171,0.152303,0.046069
0.043373,0.165255,0.310312,0.033315,0.033159,0.410073,0.147599,0.042900
0.043542,0.163484,0.308917,0.033227,0.033387,0.410079,0.146635,0.041864
0.043723,0.160169,0.305121,0.033089,0.033984,0.410185,0.143619,0.039871
0.043596,0.155618,0.296900,0.034180,0.033177,0.415126,0.139598,0.037153
0.043511,0.153580,0.295066,0.035229,0.032109,0.414228,0.139485,0.036425
0.043478,0.153255,0.294472,0.035648,0.031694,0.410127,0.139239,0.036400
0.043478,0.147757,0.289758,0.036367,0.029280,0.393643,0.140213,0.035956
0.043565,0.146301,0.287687,0.036839,0.027777,0.386785,0.140042,0.035672
0.043672,0.146465,0.288865,0.037177,0.025890,0.380722,0.138398,0.035599
0.043704,0.147966,0.289877,0.037260,0.022980,0.369420,0.133635,0.034806
0.043543,0.147578,0.290270,0.037279,0.022182,0.362556,0.132404,0.034835
0.043491,0.147750,0.289892,0.037185,0.021680,0.356040,0.130761,0.035310
0.043402,0.143128,0.278753,0.036932,0.021085,0.335975,0.127922,0.036583
0.042946,0.138627,0.267272,0.035894,0.022273,0.330337,0.124383,0.038305
0.041437,0.134014,0.252526,0.033199,0.024897,0.323440,0.119740,0.039576
0.040535,0.131289,0.245766,0.031720,0.025716,0.319675,0.119774,0.041743
0.038788,0.129602,0.243349,0.030768,0.025884,0.318459,0.119917,0.045179
0.037445,0.127751,0.241026,0.029836,0.026026,0.316316,0.120767,0.048059
0.034508,0.122530,0.230485,0.027037,0.026453,0.303763,0.124298,0.060104
0.033702,0.122674,0.226381,0.024869,0.026774,0.296713,0.125265,0.067079
0.033469,0.130491,0.211659,0.020193,0.026357,0.268529,0.123751,0.085255
0.033521,0.131436,0.209672,0.019653,0.026444,0.264263,0.123487,0.088531
0.032857,0.131846,0.201301,0.018085,0.026432,0.257413,0.122281,0.093448
0.030396,0.129208,0.182192,0.016692,0.025578,0.243742,0.118770,0.099664
0.028559,0.126410,0.172690,0.016270,0.025406,0.238017,0.117068,0.102858
0.026449,0.122499,0.164491,0.015809,0.026099,0.230837,0.116692,0.116413
0.027590,0.120793,0.160344,0.015644,0.026267,0.226634,0.117838,0.135334
0.032206,0.120387,0.159869,0.015545,0.026387,0.222352,0.120250,0.152729
0.038068,0.122020,0.156782,0.015604,0.026474,0.218965,0.121552,0.173443
0.049208,0.124070,0.152447,0.015646,0.025764,0.217657,0.124270,0.199726
0.064577,0.130450,0.163880,0.015462,0.024754,0.208029,0.127001,0.231032
0.071541,0.132826,0.167844,0.014127,0.023843,0.201883,0.126221,0.250874
0.077390,0.135629,0.170526,0.013159,0.023190,0.195643,0.125936,0.268063
0.085289,0.138501,0.174952,0.012739,0.022939,0.191240,0.126318,0.284350
0.097562,0.141935,0.178481,0.012346,0.027759,0.195618,0.124682,0.310769
0.106753,0.142058,0.175631,0.012306,0.031528,0.200054,0.123998,0.325112
0.113327,0.141464,0.175345,0.012290,0.033038,0.201519,0.124275,0.334186
0.148320,0.157213,0.181253,0.013415,0.037981,0.215450,0.126571,0.372702
0.163157,0.164615,0.182569,0.013862,0.039168,0.220724,0.126375,0.387698
0.188992,0.180618,0.186560,0.014466,0.038761,0.225007,0.130464,0.416436
0.208059,0.189497,0.188663,0.015042,0.037654,0.225639,0.132743,0.438252
0.225155,0.195209,0.188618,0.015405,0.038682,0.227348,0.132484,0.457917
0.245337,0.205010,0.186730,0.015623,0.039449,0.230865,0.132611,0.471787
0.263048,0.215709,0.186326,0.016030,0.041130,0.236739,0.132547,0.481858
0.293239,0.232053,0.188288,0.016434,0.045771,0.247803,0.133956,0.497106
0.319530,0.240642,0.189111,0.016992,0.049479,0.256861,0.138943,0.509200
0.335997,0.244675,0.191027,0.017191,0.050946,0.262363,0.142075,0.519591
0.364378,0.254652,0.193540,0.017459,0.052515,0.273106,0.146031,0.538359
0.384142,0.262545,0.194525,0.017423,0.053314,0.280985,0.150154,0.553024
0.407165,0.270815,0.195096,0.017514,0.054447,0.289966,0.156736,0.567560
0.427788,0.281524,0.198085,0.017673,0.056350,0.302706,0.162470,0.581151
0.438332,0.287403,0.200806,0.017951,0.056978,0.309657,0.165552,0.587440
0.464815,0.304114,0.210658,0.019979,0.059057,0.335813,0.172942,0.596624
0.481331,0.317092,0.220302,0.021073,0.059950,0.349932,0.176312,0.594475
0.496707,0.327901,0.230404,0.021934,0.060881,0.362283,0.181244,0.597061
0.509611,0.333680,0.243848,0.022816,0.062118,0.372705,0.189114,0.595539
0.519663,0.339821,0.252792,0.023568,0.063484,0.378716,0.196285,0.598751
0.559928,0.350930,0.250852,0.024461,0.070581,0.397213,0.211997,0.616375
0.583715,0.367548,0.250846,0.027088,0.076247,0.413988,0.216298,0.618333
0.589327,0.372112,0.251007,0.028008,0.078218,0.419295,0.217449,0.619842
0.601209,0.385723,0.258728,0.030762,0.082099,0.440993,0.221184,0.621213
0.609995,0.391766,0.267278,0.032476,0.083332,0.449160,0.224893,0.620968
0.617740,0.397880,0.289550,0.034043,0.084582,0.457919,0.228450,0.625156
0.620331,0.398086,0.294781,0.034401,0.085116,0.460572,0.229272,0.624841
0.622838,0.397196,0.297678,0.034704,0.085456,0.461361,0.230263,0.625073
0.630111,0.390627,0.307588,0.034430,0.086087,0.458272,0.232506,0.624762
0.630358,0.388012,0.312860,0.034709,0.086444,0.457570,0.234932,0.628700
0.616490,0.375377,0.321884,0.034896,0.086912,0.457589,0.234251,0.611981
0.598662,0.369805,0.328723,0.035442,0.084906,0.455377,0.233606,0.590618
0.591112,0.366699,0.330390,0.035680,0.084198,0.455398,0.233546,0.583273
0.567297,0.355895,0.339597,0.036049,0.081532,0.456817,0.231633,0.562285
0.559121,0.352838,0.340796,0.036114,0.079796,0.458685,0.230078,0.553713
0.549019,0.347545,0.342686,0.036168,0.078214,0.460741,0.228482,0.545400
0.521062,0.335458,0.346029,0.036302,0.073575,0.465240,0.222661,0.524362
0.486963,0.319938,0.344828,0.036846,0.070436,0.468635,0.213984,0.492832
0.455673,0.302076,0.344350,0.037408,0.070851,0.466753,0.208627,0.464031
0.434777,0.292287,0.348193,0.038380,0.072189,0.465146,0.203217,0.443755
0.411310,0.280603,0.348988,0.039166,0.072476,0.461439,0.197294,0.423568
0.371994,0.259861,0.355704,0.039649,0.074286,0.462138,0.185400,0.389075
0.364328,0.254595,0.357148,0.039697,0.074327,0.460157,0.182262,0.380361
0.345908,0.243785,0.354756,0.040072,0.074737,0.463751,0.178003,0.363796
0.325650,0.233915,0.348432,0.040499,0.075031,0.468215,0.171999,0.344260
0.315404,0.229990,0.342172,0.040565,0.075011,0.471808,0.167592,0.335194
0.288486,0.219486,0.331081,0.039768,0.074244,0.484300,0.157039,0.303838
0.228928,0.207137,0.330143,0.042510,0.072004,0.510960,0.150946,0.248914
0.205937,0.194399,0.331821,0.042017,0.070023,0.513406,0.151009,0.232147
0.195911,0.189083,0.331414,0.041803,0.068849,0.513939,0.150606,0.222298
0.163940,0.166146,0.320666,0.040885,0.064196,0.515841,0.149638,0.190174
0.147052,0.157750,0.312709,0.040448,0.060208,0.518742,0.148206,0.173905
0.123646,0.150370,0.294294,0.040552,0.055199,0.517852,0.147021,0.148106
0.114652,0.147892,0.288810,0.040741,0.053897,0.518996,0.146536,0.140622
0.077971,0.141059,0.273955,0.041441,0.051010,0.535781,0.141930,0.110552
0.062319,0.136890,0.270673,0.041448,0.051713,0.548351,0.139537,0.088100
0.056233,0.134292,0.267341,0.041205,0.053214,0.555390,0.137513,0.078998
0.049851,0.130568,0.264308,0.040522,0.054326,0.565121,0.136258,0.069172
0.048292,0.129623,0.264965,0.040406,0.054855,0.568894,0.135525,0.066753
0.047102,0.128897,0.266055,0.040369,0.055303,0.570662,0.135445,0.064753
0.043109,0.121055,0.259545,0.043727,0.056725,0.561316,0.134910,0.057765
0.042223,0.119687,0.259723,0.045071,0.057547,0.556212,0.135779,0.056163
0.041946,0.120308,0.262470,0.045641,0.057623,0.553429,0.136240,0.055550
0.041514,0.123667,0.278298,0.048386,0.057828,0.541397,0.138129,0.053699
0.041459,0.124701,0.284003,0.049393,0.056874,0.535183,0.140700,0.053397
0.041390,0.125548,0.285631,0.049603,0.055201,0.531808,0.143427,0.053419
0.041116,0.125011,0.284627,0.049245,0.052657,0.539477,0.146632,0.054350
0.040843,0.123827,0.277305,0.048569,0.051345,0.543586,0.149452,0.055267
0.041517,0.120880,0.265629,0.046344,0.050566,0.541403,0.155778,0.056229
0.041649,0.118794,0.260492,0.045485,0.051907,0.539467,0.157731,0.056038
0.041624,0.118924,0.256937,0.044841,0.053836,0.536054,0.158968,0.055743
0.041512,0.120810,0.252691,0.043902,0.055345,0.524806,0.159356,0.055180
0.041527,0.119287,0.245982,0.041902,0.054189,0.517028,0.155522,0.055591
0.040562,0.113943,0.237759,0.038463,0.051321,0.500507,0.144551,0.053922
0.040126,0.113594,0.242076,0.036968,0.050018,0.495820,0.141146,0.051116
0.039680,0.112739,0.247019,0.035677,0.048986,0.488421,0.138304,0.048715
0.039125,0.112405,0.248571,0.033661,0.047449,0.481500,0.134948,0.046694
0.038548,0.111790,0.248477,0.032004,0.046390,0.474437,0.133536,0.044780
0.038291,0.111807,0.248415,0.031496,0.045336,0.470666,0.133562,0.043681
0.037852,0.110984,0.244559,0.030195,0.043476,0.467327,0.136313,0.043090
0.037429,0.111496,0.242698,0.029726,0.043272,0.460882,0.137887,0.042807
0.034598,0.110217,0.241523,0.029295,0.042465,0.453767,0.137438,0.041509
0.030011,0.107811,0.238536,0.028948,0.040144,0.442843,0.136244,0.038123
0.020291,0.107396,0.220420,0.029838,0.034422,0.447401,0.137648,0.033789
0.019625,0.109272,0.217658,0.029374,0.034036,0.449589,0.139332,0.033608
0.018572,0.112127,0.212717,0.028678,0.033420,0.453276,0.142640,0.033106
0.017805,0.115623,0.209873,0.027852,0.033022,0.456405,0.147369,0.032768
0.017116,0.117836,0.205327,0.026983,0.033261,0.461228,0.151013,0.032717
0.016840,0.118340,0.196784,0.025841,0.034909,0.468716,0.154157,0.032909
0.016328,0.117779,0.186925,0.025169,0.037443,0.475886,0.157956,0.033518
0.016057,0.118776,0.178390,0.024425,0.041154,0.486551,0.159694,0.034365
0.016054,0.120604,0.174761,0.024130,0.041793,0.482361,0.158014,0.035703
0.016332,0.123354,0.180885,0.024827,0.041318,0.473992,0.158716,0.037615
0.016232,0.124269,0.188681,0.026164,0.040456,0.465767,0.159429,0.038996
0.016012,0.124723,0.192576,0.026683,0.040204,0.463522,0.159251,0.039739
0.015444,0.126422,0.197228,0.027029,0.038147,0.464594,0.159648,0.041813
0.015500,0.129099,0.199522,0.027225,0.036763,0.466283,0.160370,0.045852
0.015772,0.130192,0.202965,0.028262,0.036652,0.468359,0.161300,0.050943
0.015889,0.130894,0.205625,0.029500,0.037259,0.473337,0.161895,0.054656
0.017835,0.134078,0.209098,0.030387,0.037695,0.473523,0.163401,0.056769
0.019428,0.137359,0.211560,0.030731,0.037864,0.473789,0.165607,0.058104
0.024610,0.148517,0.205200,0.032884,0.038462,0.476633,0.172192,0.066402
0.025598,0.149923,0.201146,0.033586,0.038681,0.476816,0.173333,0.067816
0.030281,0.153570,0.191703,0.035272,0.039331,0.478774,0.176854,0.072829
0.031490,0.154167,0.190410,0.035721,0.039549,0.476035,0.176872,0.074178
0.034007,0.156243,0.187629,0.036848,0.039889,0.471578,0.177264,0.077181
0.036512,0.156731,0.183606,0.037281,0.040215,0.468885,0.176062,0.079571
0.038774,0.157217,0.182391,0.038266,0.041001,0.468821,0.173328,0.083844
0.041737,0.157992,0.185405,0.039921,0.042605,0.472668,0.171669,0.089118
0.052127,0.161495,0.188051,0.042546,0.044346,0.488525,0.172846,0.099427
0.058389,0.169299,0.191032,0.044318,0.046272,0.491758,0.174450,0.103409
0.067036,0.178692,0.196018,0.045839,0.047786,0.487645,0.175980,0.108152
0.069419,0.180294,0.197913,0.045649,0.048431,0.489090,0.176497,0.109608
0.073496,0.182873,0.201351,0.045353,0.050094,0.482420,0.174381,0.111918
0.078750,0.183916,0.209837,0.044405,0.052330,0.477231,0.171306,0.117027
0.081184,0.184089,0.214278,0.043974,0.052859,0.478376,0.168820,0.118132
0.090783,0.187626,0.232905,0.044067,0.051358,0.481796,0.159369,0.133392
0.096210,0.193111,0.244571,0.043529,0.048857,0.487030,0.156373,0.137914
0.112107,0.201151,0.260847,0.042660,0.048655,0.508376,0.153740,0.144051
0.117486,0.202191,0.265091,0.042697,0.049100,0.517526,0.155009,0.144565
0.129753,0.204562,0.269713,0.043840,0.050462,0.539452,0.159300,0.145566
0.137238,0.207281,0.267047,0.043238,0.051223,0.543249,0.161681,0.146234
0.140887,0.209764,0.263329,0.043265,0.051271,0.544442,0.162635,0.147764
0.143668,0.210901,0.259816,0.043787,0.051237,0.540912,0.161096,0.148328
0.145639,0.214647,0.259795,0.044883,0.049580,0.536622,0.162915,0.146080
0.147874,0.218108,0.262881,0.047840,0.051563,0.528614,0.166694,0.139481
0.146813,0.219112,0.270215,0.050922,0.056669,0.522795,0.166765,0.136263
0.146528,0.216989,0.272297,0.052488,0.058844,0.524362,0.166627,0.132146
0.146062,0.215684,0.273104,0.052668,0.060068,0.527308,0.166369,0.130064
0.144749,0.213837,0.282949,0.053483,0.062497,0.537978,0.163527,0.125358
0.142776,0.213894,0.292522,0.053964,0.063840,0.542277,0.162201,0.122128
0.140950,0.213933,0.299206,0.054062,0.064639,0.542852,0.160798,0.119128
0.137925,0.217210,0.309591,0.053701,0.065274,0.541273,0.161203,0.114670
0.135746,0.217642,0.313722,0.052730,0.064955,0.532489,0.164431,0.109682
0.132892,0.217330,0.313496,0.052578,0.064028,0.520674,0.166251,0.103701
0.125065,0.214951,0.312679,0.054155,0.064818,0.506726,0.168946,0.094772
0.119495,0.210030,0.312154,0.054147,0.064238,0.502850,0.168987,0.089353
0.107859,0.197931,0.310018,0.053986,0.063957,0.502686,0.170239,0.080046
0.102515,0.192021,0.312012,0.054208,0.063436,0.511107,0.174569,0.075470
0.101181,0.189641,0.320090,0.055071,0.062449,0.517443,0.177611,0.072627
0.100278,0.188669,0.321521,0.055505,0.062066,0.517391,0.179985,0.071859
0.103821,0.184865,0.321287,0.057100,0.061767,0.515321,0.185662,0.068074
0.105944,0.179949,0.313589,0.057268,0.063196,0.519237,0.194009,0.066056
0.106081,0.178740,0.309619,0.057163,0.063534,0.520601,0.196750,0.066174
0.091101,0.171274,0.287784,0.057671,0.066658,0.500998,0.207771,0.068363
0.088664,0.170239,0.285869,0.057391,0.068320,0.500903,0.207287,0.068153
0.084902,0.169782,0.282620,0.058213,0.070673,0.506260,0.206036,0.067996
0.086145,0.170272,0.278966,0.058371,0.072662,0.514673,0.204520,0.067024
0.092496,0.169254,0.283281,0.058208,0.076710,0.524345,0.202622,0.067554
0.095680,0.169121,0.285493,0.057587,0.077834,0.523939,0.202398,0.068391
0.102564,0.164196,0.286959,0.056353,0.079746,0.521551,0.200112,0.071034
0.111010,0.157170,0.284487,0.052990,0.078093,0.519526,0.199307,0.077465
0.113677,0.155564,0.279419,0.051089,0.075516,0.518976,0.199860,0.079027
0.117992,0.150211,0.271769,0.048118,0.070938,0.517434,0.200541,0.081802
0.128695,0.138373,0.274402,0.043698,0.067113,0.500388,0.205126,0.088141
0.133325,0.135742,0.270176,0.043334,0.066414,0.493644,0.208258,0.089575
0.136726,0.134121,0.266832,0.043027,0.065827,0.490701,0.211822,0.090779
0.139045,0.131536,0.265198,0.043024,0.065665,0.487930,0.214988,0.091623
0.141390,0.125889,0.258719,0.043193,0.066354,0.491291,0.220664,0.092213
0.142851,0.123429,0.256312,0.041878,0.066094,0.495646,0.226036,0.092734
0.143604,0.121912,0.255503,0.039625,0.064848,0.494431,0.227552,0.093008
0.144426,0.121799,0.256805,0.036712,0.063233,0.489949,0.228591,0.093041
0.144604,0.122314,0.261143,0.035136,0.062189,0.490729,0.229956,0.092552
0.144578,0.123268,0.261772,0.034965,0.061690,0.487056,0.228297,0.092529
0.142503,0.124146,0.254382,0.034476,0.062281,0.474354,0.225162,0.091128
0.140125,0.122316,0.244326,0.033702,0.064018,0.464718,0.220718,0.089397
0.137036,0.120837,0.241705,0.033592,0.065141,0.460832,0.218918,0.088153
0.129812,0.118525,0.238813,0.032774,0.066365,0.456153,0.215520,0.085291
0.119871,0.112427,0.231331,0.031946,0.066930,0.430850,0.204550,0.074638
0.115999,0.107931,0.227086,0.031453,0.067298,0.422533,0.198341,0.069878
0.110843,0.100610,0.218891,0.030631,0.065270,0.412787,0.192161,0.063764
0.107446,0.095649,0.212314,0.029519,0.061674,0.399520,0.192447,0.060761
0.105910,0.093371,0.209364,0.028955,0.059186,0.390433,0.193675,0.059626
0.092793,0.081789,0.201947,0.024537,0.050788,0.344051,0.202657,0.054486
0.085557,0.078244,0.195298,0.024228,0.047569,0.329970,0.206789,0.051005
0.067434,0.074461,0.183234,0.023913,0.043428,0.312237,0.209215,0.042118
0.063916,0.074122,0.181118,0.023861,0.042740,0.308558,0.209046,0.039626
0.057651,0.073941,0.178791,0.023817,0.041702,0.299245,0.206676,0.035719
0.049170,0.073427,0.174223,0.023998,0.040052,0.288897,0.203534,0.030398
0.046825,0.073005,0.170491,0.024277,0.039304,0.283797,0.202758,0.028930
0.038217,0.071353,0.153129,0.025604,0.035616,0.277291,0.207297,0.025254
0.035696,0.070527,0.149315,0.025357,0.034988,0.276776,0.207788,0.024530
0.032220,0.069327,0.141779,0.024878,0.034187,0.274706,0.207602,0.023558
0.029443,0.068507,0.129448,0.023810,0.033087,0.272334,0.207449,0.022788
0.029139,0.069199,0.126959,0.023043,0.032081,0.269564,0.205900,0.022627
0.029357,0.070544,0.128942,0.022931,0.031454,0.266674,0.201941,0.022721
0.032374,0.071091,0.126234,0.023928,0.031826,0.266462,0.200980,0.023400
0.033257,0.070006,0.124335,0.024347,0.032030,0.265824,0.201257,0.023686
0.034900,0.067695,0.119963,0.024756,0.031782,0.261604,0.202537,0.024256
0.039258,0.064414,0.110800,0.024986,0.031260,0.254966,0.203365,0.025954
0.042797,0.059674,0.105841,0.024815,0.029584,0.247798,0.208034,0.029192
0.045990,0.056290,0.107772,0.024623,0.026189,0.242554,0.214087,0.031612
0.049160,0.055945,0.106714,0.024390,0.025102,0.241783,0.216052,0.032024
0.057100,0.055541,0.103663,0.023915,0.023403,0.238030,0.218483,0.033279
0.084621,0.057418,0.102450,0.024684,0.017910,0.224700,0.224241,0.038718
0.102391,0.060241,0.106252,0.026171,0.016277,0.239612,0.219933,0.043574
0.109674,0.060399,0.103143,0.027455,0.015755,0.245688,0.216778,0.046639
0.112630,0.060246,0.101679,0.027948,0.015967,0.248998,0.214792,0.047945
0.124823,0.059539,0.094771,0.030205,0.017442,0.261764,0.206526,0.054760
0.126811,0.059269,0.094104,0.030715,0.017600,0.264212,0.206055,0.055947
0.139642,0.057812,0.094250,0.032295,0.017903,0.269758,0.206242,0.060818
0.150360,0.056214,0.093103,0.033124,0.017984,0.277454,0.206976,0.063395
0.176017,0.054900,0.092108,0.033845,0.019135,0.297624,0.205135,0.067863
0.186052,0.054679,0.091872,0.033133,0.019556,0.302752,0.203080,0.070822
0.209007,0.054038,0.091259,0.032310,0.020665,0.306412,0.199939,0.078689
0.220174,0.053805,0.090746,0.032152,0.024411,0.311189,0.200556,0.082463
0.229070,0.052965,0.090230,0.032057,0.028115,0.318146,0.203834,0.085758
0.237060,0.049918,0.087968,0.031984,0.032986,0.336215,0.206001,0.089070
0.240680,0.047916,0.082531,0.033447,0.035151,0.343622,0.206493,0.091267
0.247315,0.046099,0.074507,0.035346,0.037167,0.347370,0.206353,0.093231
0.253221,0.044537,0.069661,0.035827,0.038669,0.357493,0.211850,0.094550
0.256952,0.044223,0.068672,0.036055,0.039333,0.362039,0.214964,0.095310
0.263769,0.044808,0.066983,0.036458,0.041765,0.369929,0.224749,0.099910
0.268021,0.046475,0.069016,0.036720,0.043540,0.376420,0.227347,0.103610
0.279963,0.047851,0.069678,0.036506,0.045101,0.383756,0.227605,0.107238
0.290261,0.048346,0.071125,0.036445,0.046820,0.391833,0.224945,0.112179
0.289393,0.048305,0.072017,0.036569,0.048550,0.401364,0.222961,0.116219
0.281025,0.046953,0.070921,0.036441,0.050330,0.413775,0.222478,0.116258
0.278547,0.046619,0.070848,0.036605,0.051129,0.417138,0.222994,0.116267
0.273985,0.046443,0.075305,0.036922,0.052720,0.423097,0.224548,0.115904
0.267947,0.046068,0.081230,0.037456,0.054303,0.422028,0.223973,0.114538
0.261235,0.047825,0.085264,0.037892,0.054994,0.417564,0.221710,0.113095
0.258601,0.049097,0.087187,0.038062,0.055263,0.417061,0.220778,0.112014
0.255927,0.051266,0.090193,0.038343,0.055969,0.419161,0.218083,0.109613
0.254434,0.053042,0.096696,0.038750,0.055256,0.422640,0.217758,0.106606
0.252320,0.054693,0.106163,0.037978,0.054532,0.425424,0.220880,0.102420
0.251872,0.055372,0.108686,0.037764,0.054353,0.425125,0.221454,0.101111
0.242410,0.056428,0.113758,0.036864,0.053996,0.424920,0.221646,0.095880
0.233866,0.057346,0.116772,0.036646,0.053961,0.421382,0.221900,0.093089
0.220441,0.058832,0.119278,0.036530,0.053224,0.411802,0.222129,0.090532
0.194992,0.062339,0.128384,0.036455,0.052062,0.408820,0.219023,0.083214
0.178163,0.068836,0.149191,0.036123,0.050220,0.403463,0.214660,0.077983
0.168894,0.073877,0.163977,0.036894,0.044990,0.392148,0.205377,0.077084
0.165844,0.078585,0.171455,0.037509,0.041819,0.380633,0.200709,0.076937
0.163954,0.082102,0.176470,0.037197,0.039403,0.370499,0.198596,0.076455
0.159291,0.084409,0.180031,0.035307,0.036596,0.363695,0.193797,0.075449
0.157250,0.084815,0.180844,0.034824,0.035896,0.362187,0.192000,0.075276
0.154758,0.085168,0.184247,0.034647,0.035353,0.362430,0.188474,0.074863
0.149812,0.086585,0.190074,0.033645,0.033005,0.357221,0.181801,0.075325
0.147114,0.088961,0.196166,0.033539,0.032349,0.354823,0.177429,0.077114
0.145235,0.092121,0.211525,0.033373,0.032199,0.350875,0.167812,0.081492
0.143416,0.095405,0.228466,0.033075,0.030879,0.347373,0.157168,0.083227
0.141040,0.097096,0.232397,0.032934,0.030680,0.346802,0.155376,0.083812
0.133540,0.101927,0.239513,0.032381,0.029365,0.342368,0.151721,0.084804
0.128043,0.105026,0.241256,0.032069,0.028543,0.340830,0.150024,0.083280
0.122952,0.107611,0.242505,0.031649,0.027369,0.337170,0.148516,0.081176
0.118227,0.110611,0.246551,0.031167,0.026014,0.332893,0.145056,0.079983
0.117355,0.111371,0.250154,0.031155,0.025450,0.331502,0.143836,0.080230
0.115993,0.113392,0.259174,0.030675,0.024388,0.333272,0.142108,0.082225
0.117494,0.116628,0.263277,0.030081,0.023134,0.338060,0.140485,0.086825
0.119756,0.119559,0.265613,0.029873,0.022236,0.341175,0.138964,0.092339
0.126776,0.121605,0.267643,0.028515,0.022402,0.355695,0.140131,0.102415
0.126020,0.120738,0.269776,0.026284,0.022614,0.353823,0.141438,0.107747
0.125667,0.120667,0.268351,0.026015,0.022574,0.351607,0.140642,0.108498
0.125369,0.120460,0.265855,0.025787,0.022540,0.349214,0.139278,0.109240
0.122547,0.120216,0.260968,0.024821,0.022449,0.347142,0.137536,0.112748
0.122719,0.120638,0.261062,0.024632,0.022567,0.347134,0.136599,0.113987
0.122946,0.121377,0.260771,0.024687,0.023037,0.347969,0.135469,0.115316
0.124201,0.123488,0.261538,0.024077,0.025690,0.349550,0.132862,0.118970
0.126234,0.124130,0.260369,0.024377,0.026707,0.343726,0.132764,0.120272
0.126135,0.122889,0.252935,0.024602,0.027414,0.341826,0.137160,0.121747
0.118511,0.114477,0.225545,0.023087,0.027327,0.343567,0.151393,0.118917
0.115352,0.110433,0.220188,0.022731,0.027812,0.350417,0.156338,0.117593
0.112111,0.107972,0.216721,0.022278,0.028410,0.358773,0.161892,0.116642
0.111915,0.108465,0.216496,0.022544,0.028552,0.359504,0.162448,0.116585
0.111659,0.109223,0.216898,0.022634,0.028671,0.360415,0.162943,0.116538
0.112075,0.110953,0.209258,0.024179,0.028793,0.357600,0.164262,0.115667
0.110730,0.108091,0.195903,0.024531,0.027529,0.354460,0.166240,0.110745
0.107243,0.105504,0.181467,0.024775,0.026049,0.349385,0.168560,0.104877
0.105992,0.104304,0.175351,0.024921,0.025599,0.349315,0.171021,0.101393
0.104480,0.102235,0.169162,0.025044,0.025197,0.348970,0.173566,0.098081
0.098435,0.094019,0.150653,0.025472,0.024001,0.349100,0.175536,0.088733
0.095931,0.088459,0.142801,0.025985,0.023452,0.354086,0.176310,0.085111
0.094089,0.083947,0.139867,0.026944,0.022948,0.356295,0.175370,0.082810
0.093490,0.082908,0.138657,0.027007,0.022828,0.356181,0.175009,0.081937
0.094054,0.082128,0.136626,0.027060,0.022727,0.355470,0.176044,0.080989
0.095320,0.080813,0.129482,0.027155,0.022274,0.350331,0.177345,0.078465
0.093916,0.079000,0.123686,0.027177,0.021699,0.343246,0.180421,0.073423
0.084444,0.071501,0.112268,0.025940,0.020063,0.323055,0.187691,0.058445
0.081709,0.070258,0.109958,0.025758,0.019510,0.317350,0.188019,0.055736
0.075248,0.067556,0.104452,0.025191,0.018160,0.305118,0.188057,0.049758
0.072324,0.066011,0.101531,0.024502,0.017529,0.302702,0.188866,0.046815
0.070083,0.064790,0.097359,0.024768,0.016900,0.309544,0.188278,0.043915
0.068752,0.062792,0.094467,0.025137,0.016976,0.321704,0.188996,0.041586
0.066943,0.060332,0.090466,0.025256,0.017119,0.332779,0.192234,0.038823
0.064956,0.057678,0.087046,0.026190,0.017246,0.338689,0.194958,0.036714
0.062109,0.054931,0.082062,0.027053,0.017137,0.342186,0.197371,0.035285
0.058564,0.052305,0.077490,0.027477,0.017196,0.342169,0.200588,0.033957
0.055101,0.048905,0.073487,0.027211,0.017139,0.342151,0.198078,0.030946
0.053283,0.047326,0.072070,0.027339,0.017108,0.347216,0.198036,0.029163
0.052666,0.046727,0.071573,0.027468,0.017095,0.348362,0.197951,0.028312
0.052275,0.046195,0.071585,0.028513,0.016880,0.348235,0.194355,0.027421
0.051874,0.047234,0.077608,0.029234,0.016391,0.344841,0.189278,0.026490
0.051267,0.046426,0.080224,0.030388,0.016302,0.341492,0.186233,0.025705
0.049804,0.044011,0.081451,0.030994,0.016271,0.341250,0.185074,0.025554
0.046723,0.040220,0.081834,0.030023,0.016453,0.343452,0.186164,0.024725
0.043090,0.038821,0.081750,0.029787,0.016993,0.344041,0.185847,0.024053
0.039994,0.037797,0.081690,0.029654,0.017720,0.347122,0.186376,0.023485
0.036009,0.036234,0.081362,0.032073,0.018292,0.346366,0.190233,0.022440
0.033821,0.034625,0.078614,0.035314,0.019343,0.353724,0.198058,0.022433
0.033333,0.033979,0.076512,0.036422,0.019588,0.354266,0.202758,0.022282
0.033197,0.033729,0.075575,0.036873,0.019683,0.354717,0.206387,0.022099
0.032641,0.033811,0.073593,0.038606,0.020598,0.360010,0.217449,0.021708
0.031406,0.034100,0.071860,0.039082,0.021000,0.362866,0.219252,0.021495
0.029258,0.033851,0.069240,0.040026,0.021628,0.368487,0.222234,0.020530
0.028277,0.031338,0.067141,0.045640,0.022428,0.374495,0.234198,0.019467
0.028003,0.030598,0.068808,0.050815,0.022685,0.379846,0.243704,0.019291
0.028528,0.031470,0.074397,0.064046,0.026198,0.400744,0.280445,0.023688
0.028771,0.031522,0.076626,0.067764,0.028727,0.404184,0.291757,0.025221
0.028869,0.031157,0.078217,0.070612,0.030745,0.399274,0.297331,0.025432
0.028617,0.031130,0.080213,0.076003,0.033219,0.394997,0.299547,0.026042
0.028543,0.031099,0.080817,0.076920,0.033297,0.394993,0.299051,0.026175
0.028152,0.031805,0.084124,0.081017,0.033244,0.394257,0.301156,0.026220
0.027946,0.032514,0.086123,0.083499,0.033637,0.398586,0.302095,0.025896
0.028539,0.034159,0.094166,0.097082,0.036748,0.392740,0.309563,0.025567
0.028317,0.034125,0.095110,0.099320,0.036877,0.391449,0.311500,0.025269
0.028145,0.033305,0.094654,0.106182,0.037222,0.387910,0.316404,0.025356
0.027919,0.030918,0.089709,0.114107,0.037158,0.400221,0.324422,0.025198
0.028259,0.030783,0.087747,0.116644,0.037657,0.409723,0.326778,0.024985
0.028399,0.030925,0.087116,0.117549,0.037735,0.412997,0.327188,0.025120
0.028936,0.032219,0.090813,0.119732,0.038273,0.420543,0.328213,0.025964
0.028991,0.032961,0.091787,0.120600,0.038207,0.421598,0.328258,0.026367
0.029274,0.033759,0.092753,0.120909,0.038151,0.421878,0.328251,0.026723
0.030490,0.038947,0.095724,0.120715,0.037450,0.417627,0.329536,0.027123
0.030765,0.043197,0.099999,0.121385,0.037090,0.417206,0.330852,0.027835
0.030950,0.046176,0.104557,0.121873,0.036835,0.417042,0.330247,0.028055
0.032432,0.053865,0.114471,0.122299,0.036492,0.415235,0.328157,0.028406
0.033017,0.057318,0.118354,0.122412,0.036358,0.413812,0.325493,0.028546
0.034854,0.062781,0.122893,0.122077,0.036757,0.411007,0.319337,0.028765
0.039194,0.066091,0.126286,0.121914,0.036480,0.407777,0.314554,0.029434
0.048296,0.073812,0.131726,0.122085,0.037369,0.405671,0.310947,0.032078
0.054613,0.078423,0.130140,0.118224,0.037615,0.404828,0.303431,0.033887
0.070740,0.084798,0.137380,0.112028,0.037832,0.401162,0.288342,0.036298
0.080628,0.087820,0.147292,0.108812,0.037703,0.402241,0.275981,0.039339
0.109648,0.090553,0.165162,0.102142,0.035023,0.406559,0.262569,0.045478
0.123084,0.091696,0.176913,0.098222,0.032466,0.411638,0.260101,0.049018
0.133385,0.092051,0.186926,0.090542,0.028275,0.417144,0.262638,0.051663
0.135453,0.092054,0.188152,0.089111,0.027906,0.419467,0.264481,0.052824
0.139468,0.092169,0.190067,0.086554,0.027484,0.423230,0.266549,0.055111
0.143121,0.091291,0.189751,0.084081,0.026936,0.427248,0.267486,0.057185
0.152538,0.090268,0.186932,0.078387,0.025582,0.437633,0.267538,0.064656
0.157198,0.090470,0.183209,0.073514,0.025280,0.442764,0.267893,0.067149
0.168740,0.091128,0.178925,0.067703,0.024868,0.450730,0.266712,0.072246
0.172668,0.091707,0.177246,0.064315,0.024653,0.451866,0.264953,0.073351
0.189989,0.098349,0.177684,0.056240,0.025356,0.453165,0.262981,0.078227
0.202704,0.102625,0.182072,0.050813,0.025933,0.436129,0.261043,0.082261
0.209418,0.104089,0.184250,0.048012,0.026146,0.425514,0.260617,0.083791
0.214264,0.104196,0.183525,0.045762,0.026365,0.419062,0.260021,0.085057
0.217945,0.103924,0.181348,0.044294,0.027065,0.415844,0.257672,0.085469
0.219469,0.103320,0.180504,0.043230,0.027514,0.414314,0.256236,0.085847
0.221884,0.102059,0.179348,0.041057,0.028217,0.413143,0.250807,0.086714
0.225131,0.097059,0.173895,0.036291,0.029231,0.411759,0.241478,0.086685
0.226504,0.095867,0.169443,0.035592,0.029406,0.413045,0.240053,0.086737
0.229618,0.088967,0.157548,0.034214,0.029710,0.415323,0.239311,0.087989
0.230291,0.085777,0.152624,0.033282,0.028946,0.415578,0.241088,0.088961
0.227512,0.083103,0.150086,0.032947,0.028399,0.413440,0.242659,0.089133
0.223162,0.080135,0.148184,0.032339,0.027293,0.408823,0.242539,0.089062
0.220198,0.075909,0.145141,0.032316,0.027193,0.413038,0.242003,0.088123
0.212165,0.070556,0.139706,0.032638,0.028335,0.428661,0.238736,0.086159
0.204865,0.068005,0.132541,0.032748,0.028755,0.434666,0.238919,0.084342
0.199364,0.066619,0.121933,0.032944,0.028906,0.435199,0.238457,0.080693
0.182799,0.067106,0.106375,0.033479,0.029071,0.429083,0.235576,0.075085
0.172156,0.068632,0.092920,0.034823,0.029337,0.416483,0.230552,0.070914
0.167568,0.069403,0.085109,0.035434,0.029580,0.405058,0.226375,0.069159
0.164461,0.069735,0.078779,0.035893,0.029772,0.389982,0.221053,0.068142
0.163238,0.069898,0.076283,0.035881,0.029584,0.382702,0.217025,0.067458
0.160617,0.070210,0.072383,0.035588,0.028911,0.368784,0.211645,0.066090
0.158465,0.070852,0.069588,0.035144,0.028261,0.358263,0.208063,0.065467
0.153646,0.071426,0.066780,0.033976,0.029577,0.341500,0.205744,0.061780
0.149432,0.071934,0.066337,0.033692,0.029434,0.337394,0.207550,0.058877
0.147337,0.071916,0.066794,0.033771,0.029439,0.337048,0.207349,0.058034
0.143229,0.072158,0.068920,0.034093,0.029448,0.335879,0.206700,0.056863
0.138410,0.072898,0.070904,0.033883,0.029454,0.333931,0.207357,0.055612
0.131597,0.071858,0.070833,0.033295,0.029221,0.332500,0.207666,0.058252
0.108025,0.064785,0.060983,0.032555,0.026319,0.329560,0.209249,0.073195
0.104547,0.066635,0.059033,0.032726,0.025137,0.331254,0.210988,0.077325
0.102104,0.075678,0.057094,0.032707,0.023938,0.331554,0.222606,0.084673
0.101862,0.087035,0.055784,0.033296,0.024845,0.332501,0.231357,0.089147
0.102145,0.091647,0.055947,0.033525,0.025322,0.333052,0.236050,0.092994
0.103718,0.103218,0.056577,0.033756,0.025523,0.331121,0.242586,0.108921
0.107245,0.106454,0.056987,0.032903,0.025611,0.328210,0.249089,0.122064
0.122042,0.112220,0.054066,0.031587,0.026727,0.342129,0.266982,0.145261
0.133922,0.117339,0.052347,0.030505,0.027529,0.359266,0.280981,0.156383
0.138832,0.120184,0.051680,0.030193,0.027934,0.366720,0.286581,0.161407
0.148726,0.128445,0.050232,0.028935,0.028686,0.376212,0.300840,0.186442
0.151005,0.131974,0.049890,0.028282,0.028522,0.373770,0.304748,0.193353
0.152389,0.135645,0.049710,0.028055,0.028382,0.373009,0.310368,0.199295
0.154235,0.146992,0.047776,0.030124,0.028443,0.375964,0.327171,0.225908
0.158584,0.155223,0.047631,0.032470,0.029591,0.381045,0.335463,0.243886
0.164018,0.160899,0.047446,0.033278,0.031681,0.388811,0.348565,0.261017
0.166443,0.163729,0.048074,0.033963,0.032116,0.392497,0.352963,0.267437
0.171421,0.169652,0.049055,0.035010,0.032984,0.399661,0.367625,0.283907
0.184863,0.181768,0.050263,0.036763,0.035996,0.424656,0.405072,0.328242
0.190960,0.189407,0.050929,0.038050,0.040057,0.433937,0.420938,0.348816
0.195771,0.199415,0.051666,0.039267,0.043186,0.441390,0.438232,0.369346
