0.011579,0.037895,0.100000,0.038947,0.101053
0.011579,0.037895,0.100000,0.038947,0.101053
0.011579,0.037895,0.100000,0.038947,0.101053
0.011579,0.037895,0.100000,0.038947,0.101053
0.011579,0.037895,0.100000,0.038947,0.101053
0.009474,0.036842,0.100000,0.038947,0.101053
0.009474,0.036842,0.100000,0.038947,0.101053
0.010526,0.036842,0.098947,0.038947,0.101053
0.010526,0.036842,0.098947,0.038947,0.101053
0.009474,0.036842,0.100000,0.040000,0.100000
0.009474,0.036842,0.100000,0.040000,0.100000
0.010526,0.035789,0.098947,0.038947,0.100000
0.010526,0.035789,0.098947,0.038947,0.100000
0.009474,0.036842,0.098947,0.038947,0.101053
0.010526,0.035789,0.098947,0.038947,0.101053
0.010526,0.035789,0.098947,0.038947,0.101053
0.010526,0.036842,0.101053,0.038947,0.100000
0.010526,0.036842,0.101053,0.038947,0.100000
0.009474,0.036842,0.098947,0.038947,0.100000
0.009474,0.036842,0.098947,0.038947,0.100000
0.010526,0.036842,0.100000,0.038947,0.100000
0.010526,0.036842,0.100000,0.038947,0.100000
0.006316,0.036842,0.098947,0.037895,0.100000
0.011579,0.036842,0.098947,0.037895,0.100000
0.011579,0.036842,0.098947,0.037895,0.100000
0.009474,0.036842,0.098947,0.037895,0.100000
0.009474,0.036842,0.098947,0.037895,0.100000
0.009474,0.035789,0.098947,0.038947,0.100000
0.009474,0.035789,0.098947,0.038947,0.100000
0.009474,0.036842,0.098947,0.037895,0.100000
0.009474,0.036842,0.098947,0.037895,0.100000
0.010526,0.035789,0.098947,0.037895,0.100000
0.010526,0.035789,0.098947,0.037895,0.100000
0.009474,0.036842,0.098947,0.037895,0.100000
0.009474,0.035789,0.098947,0.037895,0.100000
0.009474,0.035789,0.098947,0.037895,0.100000
0.008421,0.035789,0.098947,0.037895,0.100000
0.008421,0.035789,0.098947,0.037895,0.100000
0.009474,0.035789,0.097895,0.037895,0.100000
0.009474,0.035789,0.097895,0.037895,0.100000
0.009474,0.035789,0.098947,0.037895,0.098947
0.008421,0.037895,0.098947,0.037895,0.100000
0.008421,0.037895,0.098947,0.037895,0.100000
0.009474,0.035789,0.098947,0.037895,0.098947
0.009474,0.035789,0.098947,0.037895,0.098947
0.010526,0.035789,0.098947,0.037895,0.100000
0.010526,0.035789,0.098947,0.037895,0.100000
0.009474,0.036842,0.098947,0.037895,0.098947
0.009474,0.036842,0.098947,0.037895,0.098947
0.009474,0.035789,0.098947,0.037895,0.100000
0.009474,0.035789,0.098947,0.037895,0.100000
0.009474,0.036842,0.098947,0.037895,0.098947
0.009474,0.035789,0.098947,0.037895,0.100000
0.009474,0.035789,0.098947,0.037895,0.100000
0.009474,0.035789,0.098947,0.037895,0.098947
0.009474,0.035789,0.098947,0.037895,0.098947
0.008421,0.035789,0.098947,0.037895,0.098947
0.008421,0.035789,0.098947,0.037895,0.098947
0.009474,0.035789,0.097895,0.037895,0.100000
0.009474,0.035789,0.097895,0.037895,0.100000
0.012632,0.035789,0.098947,0.037895,0.100000
0.017895,0.035789,0.097895,0.037895,0.100000
0.017895,0.035789,0.097895,0.037895,0.100000
0.025263,0.035789,0.097895,0.037895,0.100000
0.025263,0.035789,0.097895,0.037895,0.100000
0.049474,0.035789,0.098947,0.037895,0.100000
0.095789,0.035789,0.097895,0.037895,0.100000
0.095789,0.035789,0.097895,0.037895,0.100000
0.153684,0.035789,0.097895,0.037895,0.100000
0.153684,0.035789,0.097895,0.037895,0.100000
0.250526,0.035789,0.097895,0.037895,0.101053
0.250526,0.035789,0.097895,0.037895,0.101053
0.363158,0.035789,0.097895,0.037895,0.101053
0.363158,0.035789,0.097895,0.037895,0.101053
0.455789,0.035789,0.097895,0.037895,0.102105
0.455789,0.035789,0.097895,0.037895,0.102105
0.562105,0.035789,0.097895,0.037895,0.102105
0.562105,0.035789,0.097895,0.037895,0.102105
0.650526,0.035789,0.096842,0.037895,0.101053
0.696842,0.035789,0.096842,0.037895,0.103158
0.696842,0.035789,0.096842,0.037895,0.103158
0.757895,0.035789,0.096842,0.037895,0.103158
0.757895,0.035789,0.096842,0.037895,0.103158
0.801053,0.035789,0.096842,0.037895,0.102105
0.801053,0.035789,0.096842,0.037895,0.102105
0.834737,0.034737,0.096842,0.037895,0.104211
0.834737,0.034737,0.096842,0.037895,0.104211
0.868421,0.034737,0.095789,0.037895,0.104211
0.908421,0.034737,0.095789,0.042105,0.104211
0.908421,0.034737,0.095789,0.042105,0.104211
0.931579,0.035789,0.096842,0.037895,0.104211
0.931579,0.035789,0.096842,0.037895,0.104211
0.949474,0.035789,0.095789,0.037895,0.105263
0.949474,0.035789,0.095789,0.037895,0.105263
0.964211,0.035789,0.095789,0.037895,0.106316
0.964211,0.035789,0.095789,0.037895,0.106316
0.989474,0.035789,0.095789,0.037895,0.106316
1.000000,0.035789,0.095789,0.037895,0.106316
1.000000,0.035789,0.095789,0.037895,0.106316
1.000000,0.035789,0.095789,0.038947,0.105263
1.000000,0.035789,0.094737,0.037895,0.107368
1.000000,0.035789,0.094737,0.037895,0.107368
1.000000,0.034737,0.092632,0.037895,0.108421
1.000000,0.034737,0.092632,0.037895,0.108421
1.000000,0.034737,0.093684,0.037895,0.108421
1.000000,0.034737,0.093684,0.037895,0.108421
1.000000,0.034737,0.093684,0.037895,0.108421
1.000000,0.035789,0.093684,0.037895,0.108421
1.000000,0.035789,0.093684,0.037895,0.108421
1.000000,0.034737,0.093684,0.037895,0.108421
1.000000,0.034737,0.093684,0.037895,0.108421
1.000000,0.034737,0.092632,0.037895,0.109474
1.000000,0.034737,0.092632,0.037895,0.109474
1.000000,0.033684,0.092632,0.037895,0.110526
1.000000,0.033684,0.092632,0.037895,0.110526
1.000000,0.034737,0.092632,0.037895,0.110526
1.000000,0.033684,0.092632,0.037895,0.112632
1.000000,0.033684,0.092632,0.037895,0.112632
1.000000,0.033684,0.092632,0.038947,0.113684
1.000000,0.033684,0.092632,0.038947,0.113684
1.000000,0.033684,0.092632,0.037895,0.114737
1.000000,0.033684,0.092632,0.037895,0.114737
1.000000,0.032632,0.091579,0.037895,0.115789
1.000000,0.032632,0.091579,0.037895,0.115789
1.000000,0.032632,0.091579,0.037895,0.115789
1.000000,0.032632,0.091579,0.037895,0.115789
1.000000,0.032632,0.091579,0.037895,0.115789
1.000000,0.032632,0.090526,0.038947,0.115789
1.000000,0.032632,0.090526,0.038947,0.115789
1.000000,0.030526,0.090526,0.037895,0.116842
1.000000,0.030526,0.090526,0.037895,0.116842
1.000000,0.031579,0.090526,0.037895,0.116842
1.000000,0.031579,0.090526,0.037895,0.116842
1.000000,0.031579,0.090526,0.038947,0.117895
1.000000,0.031579,0.090526,0.038947,0.117895
1.000000,0.031579,0.090526,0.038947,0.117895
1.000000,0.031579,0.090526,0.038947,0.117895
1.000000,0.030526,0.091579,0.038947,0.115789
1.000000,0.030526,0.091579,0.038947,0.115789
0.989474,0.031579,0.091579,0.038947,0.114737
0.989474,0.031579,0.091579,0.038947,0.114737
0.913684,0.031579,0.091579,0.038947,0.112632
0.913684,0.031579,0.091579,0.038947,0.112632
0.767368,0.031579,0.090526,0.038947,0.108421
0.767368,0.031579,0.090526,0.038947,0.108421
0.570526,0.030526,0.089474,0.037895,0.108421
0.570526,0.030526,0.089474,0.037895,0.108421
0.388421,0.030526,0.089474,0.037895,0.108421
0.388421,0.030526,0.089474,0.037895,0.108421
0.264211,0.030526,0.087368,0.035789,0.104211
0.264211,0.030526,0.087368,0.035789,0.104211
0.193684,0.030526,0.087368,0.035789,0.102105
0.156842,0.030526,0.087368,0.035789,0.102105
0.156842,0.030526,0.087368,0.035789,0.102105
0.130526,0.027368,0.087368,0.035789,0.100000
0.130526,0.027368,0.087368,0.035789,0.100000
0.110526,0.029474,0.087368,0.034737,0.100000
0.110526,0.029474,0.087368,0.034737,0.100000
0.096842,0.031579,0.087368,0.033684,0.097895
0.096842,0.031579,0.087368,0.033684,0.097895
0.084211,0.027368,0.088421,0.034737,0.096842
0.074737,0.026316,0.088421,0.034737,0.095789
0.074737,0.026316,0.088421,0.034737,0.095789
0.068421,0.024211,0.087368,0.032632,0.094737
0.068421,0.024211,0.087368,0.032632,0.094737
0.063158,0.023158,0.087368,0.033684,0.093684
0.063158,0.023158,0.087368,0.033684,0.093684
0.056842,0.021053,0.087368,0.033684,0.092632
0.056842,0.021053,0.087368,0.033684,0.092632
0.053684,0.020000,0.088421,0.032632,0.090526
0.050526,0.017895,0.087368,0.032632,0.091579
0.050526,0.017895,0.087368,0.032632,0.091579
0.048421,0.017895,0.087368,0.033684,0.091579
0.046316,0.016842,0.087368,0.032632,0.091579
0.046316,0.016842,0.087368,0.032632,0.091579
0.044211,0.015789,0.088421,0.033684,0.091579
0.044211,0.015789,0.088421,0.033684,0.091579
0.043158,0.016842,0.089474,0.033684,0.089474
0.043158,0.016842,0.089474,0.033684,0.089474
0.042105,0.016842,0.090526,0.034737,0.090526
0.042105,0.016842,0.090526,0.034737,0.090526
0.040000,0.021053,0.096842,0.035789,0.090526
0.040000,0.021053,0.096842,0.035789,0.090526
0.040000,0.029474,0.102105,0.036842,0.091579
0.040000,0.029474,0.102105,0.036842,0.091579
0.038947,0.051579,0.109474,0.037895,0.092632
0.038947,0.051579,0.109474,0.037895,0.092632
0.037895,0.098947,0.117895,0.038947,0.095789
0.037895,0.098947,0.117895,0.038947,0.095789
0.037895,0.189474,0.129474,0.040000,0.096842
0.036842,0.324211,0.146316,0.042105,0.097895
0.036842,0.324211,0.146316,0.042105,0.097895
0.034737,0.451579,0.158947,0.045263,0.100000
0.034737,0.451579,0.158947,0.045263,0.100000
0.034737,0.585263,0.171579,0.048421,0.102105
0.034737,0.585263,0.171579,0.048421,0.102105
0.034737,0.716842,0.190526,0.054737,0.105263
0.034737,0.716842,0.190526,0.054737,0.105263
0.033684,0.812632,0.213684,0.067368,0.108421
0.033684,0.812632,0.213684,0.067368,0.108421
0.033684,0.871579,0.245263,0.094737,0.111579
0.033684,0.871579,0.245263,0.094737,0.111579
0.033684,0.910526,0.283158,0.141053,0.115789
0.033684,0.910526,0.283158,0.141053,0.115789
0.032632,0.936842,0.327368,0.208421,0.120000
0.032632,0.936842,0.327368,0.208421,0.120000
0.031579,0.957895,0.382105,0.302105,0.122105
0.031579,0.957895,0.382105,0.302105,0.122105
0.032632,0.968421,0.445263,0.414737,0.124211
0.031579,0.972632,0.475789,0.469474,0.126316
0.032632,0.981053,0.540000,0.567368,0.132632
0.032632,0.981053,0.540000,0.567368,0.132632
0.032632,0.985263,0.594737,0.636842,0.136842
0.032632,0.985263,0.594737,0.636842,0.136842
0.031579,0.990526,0.633684,0.682105,0.141053
0.031579,0.990526,0.633684,0.682105,0.141053
0.031579,0.992632,0.660000,0.712632,0.143158
0.031579,0.992632,0.660000,0.712632,0.143158
0.030526,0.992632,0.677895,0.736842,0.148421
0.030526,0.992632,0.700000,0.761053,0.153684
0.030526,0.992632,0.700000,0.761053,0.153684
0.030526,0.993684,0.720000,0.777895,0.162105
0.030526,0.993684,0.720000,0.777895,0.162105
0.030526,0.992632,0.734737,0.789474,0.169474
0.030526,0.992632,0.734737,0.789474,0.169474
0.031579,0.990526,0.736842,0.791579,0.175789
0.029474,0.990526,0.736842,0.785263,0.180000
0.029474,0.990526,0.736842,0.785263,0.180000
0.029474,0.988421,0.734737,0.783158,0.181053
0.029474,0.988421,0.734737,0.783158,0.181053
0.026316,0.988421,0.733684,0.776842,0.182105
0.026316,0.988421,0.733684,0.776842,0.182105
0.029474,0.984211,0.727368,0.766316,0.183158
0.029474,0.984211,0.727368,0.766316,0.183158
0.029474,0.983158,0.717895,0.753684,0.183158
0.029474,0.983158,0.717895,0.753684,0.183158
0.029474,0.978947,0.704211,0.743158,0.184211
0.029474,0.978947,0.704211,0.743158,0.184211
0.028421,0.976842,0.691579,0.731579,0.185263
0.028421,0.976842,0.691579,0.731579,0.185263
0.029474,0.973684,0.677895,0.720000,0.184211
0.029474,0.973684,0.677895,0.720000,0.184211
0.029474,0.969474,0.657895,0.698947,0.185263
0.029474,0.969474,0.657895,0.698947,0.185263
0.028421,0.956842,0.620000,0.653684,0.181053
0.027368,0.937895,0.560000,0.565263,0.175789
0.026316,0.908421,0.491579,0.449474,0.171579
0.026316,0.908421,0.491579,0.449474,0.171579
0.026316,0.871579,0.440000,0.372632,0.168421
0.026316,0.871579,0.440000,0.372632,0.168421
0.026316,0.809474,0.388421,0.315789,0.167368
0.026316,0.809474,0.388421,0.315789,0.167368
0.026316,0.685263,0.332632,0.260000,0.163158
0.026316,0.685263,0.332632,0.260000,0.163158
0.024211,0.525263,0.289474,0.220000,0.158947
0.026316,0.406316,0.258947,0.193684,0.154737
0.026316,0.406316,0.258947,0.193684,0.154737
0.025263,0.326316,0.234737,0.173684,0.149474
0.025263,0.326316,0.234737,0.173684,0.149474
0.025263,0.271579,0.214737,0.156842,0.146316
0.025263,0.271579,0.214737,0.156842,0.146316
0.024211,0.230526,0.193684,0.141053,0.143158
0.024211,0.230526,0.193684,0.141053,0.143158
0.023158,0.202105,0.173684,0.130526,0.138947
0.024211,0.182105,0.156842,0.120000,0.132632
0.024211,0.182105,0.156842,0.120000,0.132632
0.023158,0.164211,0.141053,0.111579,0.127368
0.023158,0.164211,0.141053,0.111579,0.127368
0.023158,0.149474,0.127368,0.104211,0.123158
0.023158,0.149474,0.127368,0.104211,0.123158
0.023158,0.136842,0.117895,0.097895,0.117895
0.023158,0.136842,0.117895,0.097895,0.117895
0.020000,0.125263,0.106316,0.090526,0.112632
0.020000,0.125263,0.106316,0.090526,0.112632
0.022105,0.113684,0.095789,0.084211,0.107368
0.022105,0.113684,0.095789,0.084211,0.107368
0.022105,0.104211,0.088421,0.078947,0.102105
0.022105,0.104211,0.088421,0.078947,0.102105
0.022105,0.096842,0.081053,0.074737,0.096842
0.020000,0.087368,0.073684,0.071579,0.091579
0.020000,0.087368,0.073684,0.071579,0.091579
0.018947,0.080000,0.067368,0.067368,0.087368
0.018947,0.080000,0.067368,0.067368,0.087368
0.015789,0.073684,0.062105,0.064211,0.083158
0.015789,0.073684,0.062105,0.064211,0.083158
0.017895,0.070526,0.060000,0.062105,0.080000
0.017895,0.070526,0.060000,0.062105,0.080000
0.017895,0.067368,0.057895,0.061053,0.076842
0.017895,0.067368,0.057895,0.061053,0.076842
0.017895,0.064211,0.055789,0.057895,0.074737
0.017895,0.064211,0.055789,0.057895,0.074737
0.016842,0.063158,0.054737,0.057895,0.072632
0.016842,0.061053,0.053684,0.056842,0.071579
0.016842,0.061053,0.053684,0.056842,0.071579
0.015789,0.060000,0.052632,0.055789,0.070526
0.015789,0.060000,0.052632,0.055789,0.070526
0.015789,0.061053,0.053684,0.055789,0.069474
0.015789,0.061053,0.053684,0.055789,0.069474
0.015789,0.061053,0.057895,0.055789,0.068421
0.015789,0.061053,0.057895,0.055789,0.068421
0.015789,0.060000,0.067368,0.054737,0.068421
0.015789,0.060000,0.083158,0.054737,0.067368
0.015789,0.060000,0.083158,0.054737,0.067368
0.015789,0.060000,0.127368,0.053684,0.069474
0.015789,0.060000,0.127368,0.053684,0.069474
0.015789,0.060000,0.216842,0.054737,0.069474
0.015789,0.060000,0.216842,0.054737,0.069474
0.015789,0.060000,0.328421,0.057895,0.072632
0.015789,0.060000,0.328421,0.057895,0.072632
0.015789,0.061053,0.448421,0.071579,0.075789
0.014737,0.061053,0.557895,0.121053,0.080000
0.014737,0.061053,0.557895,0.121053,0.080000
0.015789,0.062105,0.635790,0.214737,0.085263
0.015789,0.062105,0.635790,0.214737,0.085263
0.015789,0.063158,0.703158,0.344211,0.090526
0.015789,0.063158,0.703158,0.344211,0.090526
0.015789,0.063158,0.762105,0.491579,0.096842
0.015789,0.063158,0.762105,0.491579,0.096842
0.015789,0.065263,0.810526,0.632632,0.102105
0.015789,0.067368,0.860000,0.755790,0.109474
0.014737,0.069474,0.898947,0.833684,0.117895
0.014737,0.069474,0.898947,0.833684,0.117895
0.014737,0.074737,0.929474,0.884211,0.127368
0.014737,0.074737,0.929474,0.884211,0.127368
0.015789,0.084211,0.949474,0.920000,0.146316
0.015789,0.084211,0.949474,0.920000,0.146316
0.015789,0.096842,0.967368,0.945263,0.171579
0.015789,0.096842,0.967368,0.945263,0.171579
0.015789,0.114737,0.978947,0.963158,0.206316
0.013684,0.143158,0.989474,0.985263,0.255789
0.013684,0.143158,0.989474,0.985263,0.255789
0.014737,0.176842,0.996842,0.986316,0.311579
0.014737,0.176842,0.996842,0.986316,0.311579
0.015789,0.213684,1.000000,0.991579,0.365263
0.015789,0.213684,1.000000,0.991579,0.365263
0.014737,0.258947,1.000000,0.994737,0.422105
0.014737,0.258947,1.000000,0.994737,0.422105
0.014737,0.307368,1.000000,0.997895,0.476842
0.015789,0.356842,1.000000,1.000000,0.525263
0.015789,0.356842,1.000000,1.000000,0.525263
0.014737,0.398947,1.000000,1.000000,0.575790
0.014737,0.398947,1.000000,1.000000,0.575790
0.013684,0.443158,1.000000,1.000000,0.617895
0.013684,0.443158,1.000000,1.000000,0.617895
0.013684,0.478947,1.000000,1.000000,0.656842
0.013684,0.478947,1.000000,1.000000,0.656842
0.013684,0.518947,1.000000,1.000000,0.690526
0.013684,0.551579,1.000000,1.000000,0.713684
0.013684,0.551579,1.000000,1.000000,0.713684
0.013684,0.576842,1.000000,1.000000,0.731579
0.013684,0.576842,1.000000,1.000000,0.731579
0.013684,0.592632,1.000000,1.000000,0.743158
0.013684,0.592632,1.000000,1.000000,0.743158
0.012632,0.601053,1.000000,1.000000,0.749474
0.012632,0.601053,1.000000,1.000000,0.749474
0.013684,0.608421,1.000000,1.000000,0.746316
0.013684,0.608421,1.000000,1.000000,0.746316
0.013684,0.603158,1.000000,0.997895,0.735789
0.013684,0.603158,1.000000,0.997895,0.735789
0.013684,0.594737,1.000000,0.996842,0.716842
0.013684,0.594737,1.000000,0.996842,0.716842
0.013684,0.573684,1.000000,0.990526,0.694737
0.013684,0.573684,1.000000,0.990526,0.694737
0.013684,0.541053,1.000000,0.986316,0.662105
0.013684,0.518947,0.996842,0.981053,0.637895
0.013684,0.518947,0.996842,0.981053,0.637895
0.012632,0.477895,0.989474,0.974737,0.583158
0.012632,0.477895,0.989474,0.974737,0.583158
0.013684,0.451579,0.981053,0.966316,0.533684
0.013684,0.451579,0.981053,0.966316,0.533684
0.013684,0.422105,0.974737,0.952632,0.481053
0.013684,0.422105,0.974737,0.952632,0.481053
0.012632,0.372632,0.954737,0.923158,0.424211
0.011579,0.311579,0.907368,0.856842,0.375789
0.011579,0.311579,0.907368,0.856842,0.375789
0.011579,0.264211,0.830526,0.740000,0.341053
0.011579,0.264211,0.830526,0.740000,0.341053
0.012632,0.212632,0.632632,0.462105,0.301053
0.012632,0.212632,0.632632,0.462105,0.301053
0.011579,0.195789,0.521053,0.352632,0.278947
0.011579,0.182105,0.418947,0.278947,0.253684
0.011579,0.182105,0.418947,0.278947,0.253684
0.013684,0.168421,0.347368,0.232632,0.231579
0.013684,0.168421,0.347368,0.232632,0.231579
0.012632,0.152632,0.288421,0.203158,0.212632
0.012632,0.141053,0.245263,0.182105,0.194737
0.012632,0.141053,0.245263,0.182105,0.194737
0.012632,0.128421,0.208421,0.166316,0.178947
0.012632,0.128421,0.208421,0.166316,0.178947
0.011579,0.117895,0.183158,0.154737,0.166316
0.011579,0.117895,0.183158,0.154737,0.166316
0.011579,0.107368,0.162105,0.145263,0.153684
0.011579,0.107368,0.162105,0.145263,0.153684
0.012632,0.100000,0.147368,0.137895,0.142105
0.012632,0.100000,0.147368,0.137895,0.142105
0.011579,0.092632,0.134737,0.131579,0.132632
0.011579,0.092632,0.134737,0.131579,0.132632
0.009474,0.087368,0.125263,0.125263,0.123158
0.009474,0.087368,0.125263,0.125263,0.123158
0.011579,0.083158,0.117895,0.120000,0.116842
0.011579,0.080000,0.111579,0.115789,0.111579
0.011579,0.080000,0.111579,0.115789,0.111579
0.015789,0.075789,0.107368,0.112632,0.106316
0.015789,0.075789,0.107368,0.112632,0.106316
0.011579,0.073684,0.105263,0.110526,0.103158
0.011579,0.073684,0.105263,0.110526,0.103158
0.010526,0.071579,0.103158,0.108421,0.101053
0.010526,0.071579,0.103158,0.108421,0.101053
0.011579,0.069474,0.101053,0.106316,0.098947
0.012632,0.068421,0.098947,0.105263,0.096842
0.012632,0.068421,0.098947,0.105263,0.096842
0.011579,0.066316,0.098947,0.104211,0.095789
0.011579,0.066316,0.098947,0.104211,0.095789
0.011579,0.065263,0.097895,0.103158,0.095789
0.011579,0.065263,0.097895,0.103158,0.095789
0.012632,0.064211,0.096842,0.102105,0.095789
0.012632,0.064211,0.096842,0.102105,0.095789
0.011579,0.063158,0.098947,0.104211,0.096842
0.010526,0.063158,0.105263,0.126316,0.097895
0.011579,0.062105,0.127368,0.268421,0.101053
0.011579,0.062105,0.127368,0.268421,0.101053
0.011579,0.061053,0.183158,0.508421,0.107368
0.011579,0.061053,0.183158,0.508421,0.107368
0.011579,0.061053,0.265263,0.704211,0.124211
0.011579,0.061053,0.265263,0.704211,0.124211
0.011579,0.060000,0.374737,0.811579,0.169474
0.011579,0.060000,0.374737,0.811579,0.169474
0.011579,0.058947,0.495789,0.878947,0.240000
0.011579,0.058947,0.495789,0.878947,0.240000
0.011579,0.058947,0.607368,0.924211,0.334737
0.011579,0.058947,0.607368,0.924211,0.334737
0.012632,0.058947,0.708421,0.951579,0.430526
0.012632,0.058947,0.708421,0.951579,0.430526
0.010526,0.057895,0.787368,0.972632,0.545263
0.010526,0.057895,0.787368,0.972632,0.545263
0.011579,0.057895,0.848421,0.989474,0.648421
0.011579,0.057895,0.889474,1.000000,0.736842
0.011579,0.057895,0.889474,1.000000,0.736842
0.011579,0.056842,0.917895,1.000000,0.798947
0.011579,0.056842,0.917895,1.000000,0.798947
0.011579,0.056842,0.935789,1.000000,0.837895
0.011579,0.056842,0.935789,1.000000,0.837895
0.012632,0.056842,0.953684,1.000000,0.862105
0.012632,0.056842,0.953684,1.000000,0.862105
0.012632,0.057895,0.965263,1.000000,0.883158
0.012632,0.056842,0.978947,1.000000,0.903158
0.012632,0.056842,0.978947,1.000000,0.903158
0.012632,0.055789,0.988421,1.000000,0.915789
0.012632,0.055789,0.988421,1.000000,0.915789
0.012632,0.056842,0.991579,1.000000,0.922105
0.012632,0.056842,0.991579,1.000000,0.922105
0.013684,0.055789,0.997895,1.000000,0.925263
0.013684,0.055789,0.997895,1.000000,0.925263
0.012632,0.055789,1.000000,1.000000,0.930526
0.012632,0.055789,1.000000,1.000000,0.934737
0.012632,0.055789,1.000000,1.000000,0.936842
0.012632,0.055789,1.000000,1.000000,0.936842
0.012632,0.055789,1.000000,1.000000,0.934737
0.012632,0.055789,1.000000,1.000000,0.934737
0.012632,0.055789,1.000000,1.000000,0.937895
0.012632,0.055789,1.000000,1.000000,0.937895
0.012632,0.055789,1.000000,1.000000,0.932632
0.012632,0.055789,1.000000,1.000000,0.932632
0.013684,0.055789,1.000000,1.000000,0.932632
0.013684,0.055789,1.000000,1.000000,0.932632
0.012632,0.055789,1.000000,1.000000,0.929474
0.012632,0.055789,1.000000,1.000000,0.929474
0.012632,0.055789,1.000000,1.000000,0.926316
0.012632,0.055789,1.000000,1.000000,0.926316
0.013684,0.055789,1.000000,1.000000,0.923158
0.013684,0.055789,1.000000,1.000000,0.923158
0.011579,0.055789,1.000000,1.000000,0.917895
0.011579,0.055789,1.000000,1.000000,0.917895
0.012632,0.055789,0.997895,1.000000,0.911579
0.011579,0.055789,0.987368,1.000000,0.904211
0.011579,0.055789,0.987368,1.000000,0.904211
0.012632,0.055789,0.982105,1.000000,0.890526
0.012632,0.055789,0.982105,1.000000,0.890526
0.011579,0.055789,0.928421,0.977895,0.815789
0.011579,0.055789,0.928421,0.977895,0.815789
0.011579,0.055789,0.866316,0.948421,0.736842
0.011579,0.055789,0.756842,0.877895,0.632632
0.011579,0.055789,0.756842,0.877895,0.632632
0.011579,0.055789,0.601053,0.734737,0.521053
0.011579,0.055789,0.601053,0.734737,0.521053
0.011579,0.053684,0.461053,0.540000,0.426316
0.011579,0.053684,0.461053,0.540000,0.426316
0.011579,0.052632,0.372632,0.401053,0.361053
0.011579,0.052632,0.372632,0.401053,0.361053
0.011579,0.051579,0.306316,0.309474,0.309474
0.011579,0.049474,0.253684,0.253684,0.270526
0.011579,0.047368,0.215789,0.221053,0.237895
0.011579,0.047368,0.215789,0.221053,0.237895
0.011579,0.047368,0.190526,0.197895,0.212632
0.011579,0.047368,0.190526,0.197895,0.212632
0.011579,0.044211,0.170526,0.182105,0.189474
0.011579,0.044211,0.170526,0.182105,0.189474
0.011579,0.040000,0.143158,0.160000,0.147368
0.011579,0.040000,0.143158,0.160000,0.147368
0.011579,0.037895,0.132632,0.152632,0.130526
0.011579,0.037895,0.132632,0.152632,0.130526
0.011579,0.035789,0.124211,0.147368,0.117895
0.011579,0.035789,0.124211,0.147368,0.117895
0.010526,0.033684,0.117895,0.140000,0.107368
0.010526,0.033684,0.117895,0.140000,0.107368
0.011579,0.032632,0.112632,0.133684,0.101053
0.010526,0.031579,0.109474,0.127368,0.096842
0.010526,0.031579,0.109474,0.127368,0.096842
0.010526,0.030526,0.106316,0.123158,0.093684
0.010526,0.030526,0.106316,0.123158,0.093684
0.009474,0.029474,0.103158,0.120000,0.091579
0.009474,0.029474,0.103158,0.120000,0.091579
0.010526,0.028421,0.102105,0.115789,0.090526
0.010526,0.028421,0.102105,0.115789,0.090526
0.010526,0.028421,0.100000,0.115789,0.090526
0.011579,0.027368,0.098947,0.114737,0.093684
0.011579,0.027368,0.098947,0.114737,0.093684
0.009474,0.027368,0.097895,0.113684,0.098947
0.009474,0.027368,0.097895,0.113684,0.098947
0.009474,0.026316,0.097895,0.113684,0.108421
0.009474,0.026316,0.097895,0.113684,0.108421
0.009474,0.026316,0.100000,0.114737,0.126316
0.009474,0.026316,0.100000,0.114737,0.126316
0.006316,0.026316,0.103158,0.120000,0.158947
0.010526,0.026316,0.107368,0.142105,0.241053
0.009474,0.026316,0.109474,0.177895,0.329474
0.009474,0.026316,0.109474,0.177895,0.329474
0.011579,0.026316,0.115789,0.367368,0.566316
0.011579,0.026316,0.115789,0.367368,0.566316
0.009474,0.026316,0.126316,0.655789,0.764211
0.009474,0.026316,0.126316,0.655789,0.764211
0.009474,0.027368,0.138947,0.809474,0.868421
0.009474,0.027368,0.138947,0.809474,0.868421
0.009474,0.028421,0.155789,0.892632,0.933684
0.009474,0.028421,0.155789,0.892632,0.933684
0.008421,0.028421,0.175789,0.945263,0.968421
0.008421,0.028421,0.175789,0.945263,0.968421
0.009474,0.030526,0.195789,0.966316,0.985263
0.009474,0.030526,0.195789,0.966316,0.985263
0.009474,0.029474,0.210526,0.975789,0.990526
0.009474,0.029474,0.210526,0.975789,0.990526
0.009474,0.032632,0.222105,0.988421,0.998947
0.009474,0.032632,0.222105,0.988421,0.998947
0.009474,0.034737,0.237895,0.995789,1.000000
0.009474,0.035789,0.258947,1.000000,1.000000
0.009474,0.035789,0.258947,1.000000,1.000000
0.009474,0.037895,0.296842,1.000000,1.000000
0.009474,0.037895,0.296842,1.000000,1.000000
0.009474,0.038947,0.350526,1.000000,1.000000
0.009474,0.038947,0.350526,1.000000,1.000000
0.010526,0.041053,0.396842,1.000000,1.000000
0.010526,0.041053,0.396842,1.000000,1.000000
0.010526,0.043158,0.437895,1.000000,0.998947
0.010526,0.045263,0.472632,1.000000,0.994737
0.010526,0.045263,0.472632,1.000000,0.994737
0.011579,0.047368,0.505263,1.000000,0.994737
0.011579,0.047368,0.505263,1.000000,0.994737
0.011579,0.049474,0.531579,1.000000,0.990526
0.011579,0.049474,0.531579,1.000000,0.990526
0.008421,0.051579,0.557895,1.000000,0.989474
0.011579,0.053684,0.587368,1.000000,0.987368
0.011579,0.055789,0.617895,1.000000,0.986316
0.011579,0.055789,0.617895,1.000000,0.986316
0.011579,0.057895,0.629474,1.000000,0.985263
0.011579,0.057895,0.629474,1.000000,0.985263
0.011579,0.058947,0.638947,1.000000,0.984211
0.011579,0.058947,0.638947,1.000000,0.984211
0.011579,0.061053,0.651579,1.000000,0.983158
0.011579,0.061053,0.651579,1.000000,0.983158
0.011579,0.062105,0.664210,1.000000,0.982105
0.011579,0.062105,0.664210,1.000000,0.982105
0.010526,0.063158,0.665263,1.000000,0.981053
0.010526,0.065263,0.667368,1.000000,0.976842
0.010526,0.065263,0.667368,1.000000,0.976842
0.010526,0.065263,0.658947,1.000000,0.977895
0.010526,0.065263,0.658947,1.000000,0.977895
0.011579,0.067368,0.656842,1.000000,0.977895
0.011579,0.067368,0.656842,1.000000,0.977895
0.011579,0.067368,0.646316,1.000000,0.977895
0.011579,0.068421,0.627368,1.000000,0.976842
0.011579,0.068421,0.627368,1.000000,0.976842
0.011579,0.068421,0.594737,0.995789,0.972632
0.011579,0.068421,0.594737,0.995789,0.972632
0.008421,0.068421,0.544211,0.989474,0.958947
0.008421,0.068421,0.544211,0.989474,0.958947
0.010526,0.068421,0.486316,0.967368,0.926316
0.010526,0.068421,0.486316,0.967368,0.926316
0.011579,0.067368,0.434737,0.924211,0.871579
0.011579,0.067368,0.434737,0.924211,0.871579
0.010526,0.064211,0.380000,0.831579,0.786316
0.010526,0.064211,0.380000,0.831579,0.786316
0.010526,0.062105,0.323158,0.670526,0.637895
0.010526,0.062105,0.323158,0.670526,0.637895
0.010526,0.060000,0.274737,0.483158,0.495789
0.010526,0.060000,0.274737,0.483158,0.495789
0.009474,0.055789,0.234737,0.360000,0.405263
0.011579,0.055789,0.202105,0.291579,0.348421
0.011579,0.055789,0.202105,0.291579,0.348421
0.010526,0.053684,0.175789,0.248421,0.300000
0.010526,0.051579,0.155789,0.221053,0.262105
0.010526,0.051579,0.155789,0.221053,0.262105
0.010526,0.049474,0.140000,0.201053,0.232632
0.010526,0.049474,0.140000,0.201053,0.232632
0.009474,0.046316,0.127368,0.185263,0.211579
0.009474,0.046316,0.127368,0.185263,0.211579
0.010526,0.043158,0.115789,0.172632,0.190526
0.010526,0.043158,0.115789,0.172632,0.190526
0.010526,0.042105,0.107368,0.164211,0.170526
0.009474,0.042105,0.098947,0.155789,0.153684
0.009474,0.042105,0.098947,0.155789,0.153684
0.009474,0.035789,0.092632,0.149474,0.140000
0.009474,0.035789,0.092632,0.149474,0.140000
0.009474,0.034737,0.086316,0.144211,0.128421
0.009474,0.034737,0.086316,0.144211,0.128421
0.009474,0.032632,0.081053,0.136842,0.117895
0.009474,0.032632,0.081053,0.136842,0.117895
0.009474,0.031579,0.077895,0.129474,0.109474
0.009474,0.030526,0.074737,0.123158,0.104211
0.009474,0.030526,0.074737,0.123158,0.104211
0.009474,0.026316,0.072632,0.116842,0.100000
0.009474,0.026316,0.072632,0.116842,0.100000
0.009474,0.028421,0.071579,0.113684,0.097895
0.009474,0.028421,0.071579,0.113684,0.097895
0.009474,0.027368,0.070526,0.111579,0.095789
0.009474,0.027368,0.070526,0.111579,0.095789
0.007368,0.026316,0.069474,0.110526,0.094737
0.007368,0.026316,0.069474,0.110526,0.094737
0.009474,0.025263,0.068421,0.108421,0.093684
0.009474,0.025263,0.068421,0.108421,0.093684
0.006316,0.025263,0.068421,0.107368,0.096842
0.006316,0.025263,0.068421,0.107368,0.096842
0.007368,0.024211,0.068421,0.106316,0.103158
0.007368,0.024211,0.068421,0.106316,0.103158
0.009474,0.024211,0.071579,0.107368,0.108421
0.008421,0.024211,0.074737,0.107368,0.114737
0.007368,0.024211,0.078947,0.107368,0.121053
0.007368,0.024211,0.078947,0.107368,0.121053
0.008421,0.024211,0.085263,0.111579,0.128421
0.008421,0.024211,0.085263,0.111579,0.128421
0.008421,0.023158,0.094737,0.123158,0.153684
0.008421,0.023158,0.094737,0.123158,0.153684
0.007368,0.023158,0.113684,0.205263,0.253684
0.007368,0.023158,0.113684,0.205263,0.253684
0.007368,0.024211,0.141053,0.380000,0.435789
0.007368,0.024211,0.165263,0.524211,0.558947
0.007368,0.024211,0.165263,0.524211,0.558947
0.006316,0.024211,0.183158,0.634737,0.672632
0.006316,0.024211,0.183158,0.634737,0.672632
0.006316,0.024211,0.198947,0.757895,0.797895
0.006316,0.024211,0.198947,0.757895,0.797895
0.008421,0.025263,0.214737,0.853684,0.884211
0.008421,0.025263,0.214737,0.853684,0.884211
0.007368,0.026316,0.228421,0.898947,0.920000
0.006316,0.027368,0.237895,0.924211,0.941053
0.006316,0.027368,0.237895,0.924211,0.941053
0.007368,0.027368,0.247368,0.953684,0.962105
0.007368,0.027368,0.247368,0.953684,0.962105
0.007368,0.028421,0.255789,0.966316,0.975789
0.007368,0.028421,0.255789,0.966316,0.975789
0.007368,0.028421,0.263158,0.975789,0.983158
0.007368,0.028421,0.263158,0.975789,0.983158
0.007368,0.030526,0.274737,0.986316,0.989474
0.007368,0.030526,0.274737,0.986316,0.989474
0.006316,0.030526,0.288421,0.992632,0.992632
0.006316,0.030526,0.288421,0.992632,0.992632
0.006316,0.032632,0.310526,1.000000,0.990526
0.006316,0.032632,0.310526,1.000000,0.990526
0.007368,0.033684,0.348421,1.000000,0.986316
0.007368,0.033684,0.348421,1.000000,0.986316
0.007368,0.036842,0.394737,1.000000,0.982105
0.008421,0.038947,0.446316,1.000000,0.981053
0.008421,0.038947,0.446316,1.000000,0.981053
0.008421,0.038947,0.495789,1.000000,0.980000
0.008421,0.042105,0.538947,1.000000,0.977895
0.008421,0.042105,0.538947,1.000000,0.977895
0.004211,0.042105,0.574737,1.000000,0.977895
0.004211,0.042105,0.574737,1.000000,0.977895
0.008421,0.044211,0.590526,1.000000,0.976842
0.008421,0.044211,0.590526,1.000000,0.976842
0.008421,0.045263,0.598947,1.000000,0.974737
0.008421,0.045263,0.598947,1.000000,0.974737
0.009474,0.046316,0.604211,1.000000,0.972632
0.009474,0.048421,0.608421,1.000000,0.972632
0.009474,0.048421,0.608421,1.000000,0.972632
0.009474,0.048421,0.604211,1.000000,0.970526
0.009474,0.048421,0.604211,1.000000,0.970526
0.009474,0.049474,0.588421,1.000000,0.969474
0.009474,0.049474,0.588421,1.000000,0.969474
0.010526,0.051579,0.577895,1.000000,0.967368
0.010526,0.051579,0.577895,1.000000,0.967368
0.011579,0.051579,0.570526,0.996842,0.966316
0.009474,0.052632,0.563158,0.996842,0.964211
0.009474,0.052632,0.563158,0.996842,0.964211
0.009474,0.052632,0.554737,0.991579,0.962105
0.009474,0.052632,0.554737,0.991579,0.962105
0.009474,0.054737,0.533684,0.987368,0.957895
0.009474,0.054737,0.533684,0.987368,0.957895
0.009474,0.054737,0.515789,0.987368,0.951579
0.009474,0.054737,0.515789,0.987368,0.951579
0.008421,0.054737,0.472632,0.970526,0.927368
0.009474,0.055789,0.432632,0.938947,0.881053
0.009474,0.055789,0.432632,0.938947,0.881053
0.008421,0.054737,0.391579,0.865263,0.807368
0.008421,0.052632,0.341053,0.726316,0.705263
0.008421,0.052632,0.341053,0.726316,0.705263
0.009474,0.049474,0.289474,0.534737,0.572632
0.009474,0.049474,0.289474,0.534737,0.572632
0.008421,0.048421,0.243158,0.392632,0.456842
0.008421,0.046316,0.205263,0.308421,0.381053
0.008421,0.046316,0.205263,0.308421,0.381053
0.008421,0.044211,0.173684,0.257895,0.321053
0.008421,0.044211,0.173684,0.257895,0.321053
0.008421,0.042105,0.151579,0.226316,0.277895
0.008421,0.042105,0.151579,0.226316,0.277895
0.009474,0.038947,0.134737,0.203158,0.246316
0.009474,0.038947,0.134737,0.203158,0.246316
0.008421,0.037895,0.122105,0.187368,0.222105
0.008421,0.034737,0.111579,0.176842,0.204211
0.008421,0.034737,0.111579,0.176842,0.204211
0.008421,0.032632,0.103158,0.167368,0.188421
0.008421,0.032632,0.103158,0.167368,0.188421
0.008421,0.030526,0.095789,0.160000,0.175789
0.008421,0.030526,0.095789,0.160000,0.175789
0.008421,0.028421,0.091579,0.152632,0.164211
0.008421,0.028421,0.091579,0.152632,0.164211
0.009474,0.027368,0.087368,0.146316,0.157895
0.007368,0.026316,0.085263,0.143158,0.155789
0.007368,0.026316,0.085263,0.143158,0.155789
0.009474,0.025263,0.083158,0.137895,0.149474
0.009474,0.025263,0.083158,0.137895,0.149474
0.007368,0.024211,0.081053,0.134737,0.147368
0.007368,0.024211,0.081053,0.134737,0.147368
0.008421,0.024211,0.081053,0.132632,0.145263
0.008421,0.024211,0.081053,0.132632,0.145263
0.007368,0.023158,0.080000,0.131579,0.145263
0.008421,0.022105,0.081053,0.130526,0.145263
0.008421,0.022105,0.081053,0.130526,0.145263
0.008421,0.021053,0.089474,0.134737,0.146316
0.008421,0.022105,0.130526,0.241053,0.151579
0.008421,0.022105,0.130526,0.241053,0.151579
0.007368,0.021053,0.214737,0.508421,0.164211
0.007368,0.021053,0.214737,0.508421,0.164211
0.008421,0.021053,0.307368,0.689474,0.193684
0.008421,0.021053,0.307368,0.689474,0.193684
0.007368,0.021053,0.415789,0.808421,0.246316
0.005263,0.021053,0.536842,0.881053,0.332632
0.005263,0.021053,0.536842,0.881053,0.332632
0.006316,0.021053,0.668421,0.930526,0.461053
0.006316,0.021053,0.668421,0.930526,0.461053
0.007368,0.021053,0.768421,0.961053,0.593684
0.007368,0.021053,0.768421,0.961053,0.593684
0.006316,0.021053,0.840000,0.983158,0.724211
0.006316,0.021053,0.840000,0.983158,0.724211
0.006316,0.021053,0.896842,0.997895,0.814737
0.006316,0.021053,0.932632,1.000000,0.866316
0.006316,0.021053,0.932632,1.000000,0.866316
0.006316,0.021053,0.960000,1.000000,0.896842
0.006316,0.021053,0.960000,1.000000,0.896842
0.006316,0.021053,0.980000,1.000000,0.914737
0.006316,0.021053,0.980000,1.000000,0.914737
0.006316,0.021053,0.991579,1.000000,0.924211
0.006316,0.021053,0.991579,1.000000,0.924211
0.006316,0.021053,1.000000,1.000000,0.928421
0.006316,0.021053,1.000000,1.000000,0.928421
0.006316,0.020000,1.000000,1.000000,0.930526
0.006316,0.020000,1.000000,1.000000,0.930526
0.007368,0.020000,1.000000,1.000000,0.933684
0.007368,0.020000,1.000000,1.000000,0.933684
0.006316,0.018947,1.000000,1.000000,0.933684
0.006316,0.018947,1.000000,1.000000,0.933684
0.006316,0.021053,1.000000,1.000000,0.930526
0.006316,0.021053,1.000000,1.000000,0.930526
0.006316,0.018947,1.000000,1.000000,0.920000
0.006316,0.018947,1.000000,1.000000,0.920000
0.006316,0.018947,1.000000,1.000000,0.920000
0.006316,0.018947,1.000000,1.000000,0.914737
0.006316,0.018947,1.000000,1.000000,0.909474
0.006316,0.018947,1.000000,1.000000,0.909474
0.006316,0.024211,1.000000,1.000000,0.905263
0.006316,0.024211,1.000000,1.000000,0.905263
0.006316,0.018947,1.000000,1.000000,0.902105
0.006316,0.018947,1.000000,1.000000,0.902105
0.006316,0.017895,1.000000,1.000000,0.900000
0.006316,0.017895,1.000000,1.000000,0.900000
0.007368,0.018947,1.000000,1.000000,0.896842
0.007368,0.018947,1.000000,1.000000,0.896842
0.006316,0.020000,1.000000,1.000000,0.893684
0.006316,0.020000,1.000000,1.000000,0.893684
0.006316,0.016842,1.000000,1.000000,0.892632
0.006316,0.016842,1.000000,1.000000,0.892632
0.006316,0.020000,1.000000,1.000000,0.891579
0.006316,0.021053,0.996842,0.996842,0.888421
0.006316,0.021053,0.996842,0.996842,0.888421
0.006316,0.021053,0.991579,0.998947,0.885263
0.006316,0.021053,0.991579,0.998947,0.885263
0.006316,0.021053,0.983158,0.990526,0.881053
0.006316,0.021053,0.983158,0.990526,0.881053
0.006316,0.021053,0.965263,0.983158,0.865263
0.006316,0.021053,0.965263,0.983158,0.865263
0.006316,0.021053,0.932632,0.964211,0.828421
0.005263,0.021053,0.874737,0.922105,0.750526
0.005263,0.021053,0.874737,0.922105,0.750526
0.005263,0.020000,0.764211,0.816842,0.637895
0.005263,0.020000,0.764211,0.816842,0.637895
0.005263,0.021053,0.603158,0.602105,0.514737
0.005263,0.021053,0.603158,0.602105,0.514737
0.005263,0.018947,0.461053,0.413684,0.416842
0.005263,0.018947,0.461053,0.413684,0.416842
0.008421,0.017895,0.356842,0.310526,0.347368
0.004211,0.017895,0.284211,0.255789,0.293684
0.005263,0.015789,0.236842,0.224211,0.257895
0.005263,0.015789,0.236842,0.224211,0.257895
0.005263,0.015789,0.205263,0.204211,0.231579
0.005263,0.015789,0.205263,0.204211,0.231579
0.006316,0.014737,0.183158,0.189474,0.210526
0.006316,0.014737,0.183158,0.189474,0.210526
0.006316,0.013684,0.165263,0.180000,0.194737
0.006316,0.013684,0.165263,0.180000,0.194737
0.007368,0.012632,0.150526,0.172632,0.180000
0.007368,0.012632,0.150526,0.172632,0.180000
0.004211,0.011579,0.140000,0.164211,0.168421
0.004211,0.011579,0.140000,0.164211,0.168421
0.005263,0.009474,0.131579,0.158947,0.160000
0.005263,0.009474,0.131579,0.158947,0.160000
0.006316,0.009474,0.127368,0.154737,0.153684
0.006316,0.009474,0.127368,0.154737,0.153684
0.006316,0.008421,0.124211,0.151579,0.149474
0.006316,0.008421,0.124211,0.151579,0.149474
0.004211,0.007368,0.121053,0.148421,0.146316
0.005263,0.007368,0.117895,0.146316,0.143158
0.005263,0.007368,0.117895,0.146316,0.143158
0.005263,0.006316,0.115789,0.144211,0.141053
0.005263,0.006316,0.115789,0.144211,0.141053
0.007368,0.006316,0.114737,0.142105,0.138947
0.007368,0.006316,0.114737,0.142105,0.138947
0.004211,0.006316,0.115789,0.140000,0.138947
0.005263,0.005263,0.130526,0.137895,0.137895
0.005263,0.005263,0.130526,0.137895,0.137895
0.004211,0.006316,0.171579,0.136842,0.136842
0.004211,0.006316,0.171579,0.136842,0.136842
0.005263,0.006316,0.251579,0.135789,0.137895
0.005263,0.006316,0.251579,0.135789,0.137895
0.005263,0.008421,0.373684,0.136842,0.137895
0.005263,0.008421,0.516842,0.141053,0.137895
0.005263,0.008421,0.516842,0.141053,0.137895
0.005263,0.008421,0.516842,0.141053,0.137895
0.004211,0.011579,0.655789,0.193684,0.138947
0.005263,0.013684,0.769474,0.347368,0.140000
0.004211,0.016842,0.842105,0.545263,0.143158
0.004211,0.016842,0.842105,0.545263,0.143158
0.004211,0.021053,0.888421,0.708421,0.146316
0.004211,0.021053,0.888421,0.708421,0.146316
0.004211,0.026316,0.918947,0.811579,0.150526
0.004211,0.026316,0.918947,0.811579,0.150526
0.005263,0.036842,0.949474,0.886316,0.157895
0.005263,0.036842,0.949474,0.886316,0.157895
0.004211,0.057895,0.968421,0.927368,0.176842
0.004211,0.057895,0.968421,0.927368,0.176842
0.004211,0.092632,0.981053,0.948421,0.204211
0.004211,0.092632,0.981053,0.948421,0.204211
0.004211,0.133684,0.990526,0.962105,0.234737
0.004211,0.133684,0.990526,0.962105,0.234737
0.003158,0.177895,0.995789,0.972632,0.278947
0.003158,0.177895,0.995789,0.972632,0.278947
0.004211,0.201053,0.998947,0.975789,0.307368
0.003158,0.254737,1.000000,0.982105,0.366316
0.003158,0.254737,1.000000,0.982105,0.366316
0.003158,0.314737,1.000000,0.989474,0.430526
0.003158,0.314737,1.000000,0.989474,0.430526
0.003158,0.374737,1.000000,0.992632,0.498947
0.003158,0.374737,1.000000,0.992632,0.498947
0.002105,0.438947,1.000000,0.997895,0.568421
0.002105,0.438947,1.000000,0.997895,0.568421
0.002105,0.486316,1.000000,0.996842,0.613684
0.002105,0.521053,1.000000,0.997895,0.644211
0.002105,0.521053,1.000000,0.997895,0.644211
0.002105,0.558947,1.000000,0.998947,0.681053
0.002105,0.558947,1.000000,0.998947,0.681053
0.002105,0.595789,1.000000,0.997895,0.713684
0.002105,0.595789,1.000000,0.997895,0.713684
0.001053,0.622105,1.000000,0.998947,0.733684
0.001053,0.629474,1.000000,0.997895,0.747368
0.001053,0.629474,1.000000,0.997895,0.747368
0.001053,0.637895,1.000000,0.996842,0.760000
0.001053,0.641053,1.000000,0.995789,0.766316
0.001053,0.641053,1.000000,0.995789,0.766316
0.000000,0.647368,1.000000,0.993684,0.768421
0.000000,0.647368,1.000000,0.993684,0.768421
0.001053,0.638947,1.000000,0.993684,0.769474
0.001053,0.638947,1.000000,0.993684,0.769474
0.001053,0.633684,1.000000,0.989474,0.766316
0.001053,0.633684,1.000000,0.989474,0.766316
0.000000,0.626316,1.000000,0.988421,0.755790
0.000000,0.626316,1.000000,0.988421,0.755790
0.001053,0.609474,1.000000,0.985263,0.737895
0.001053,0.609474,1.000000,0.985263,0.737895
0.000000,0.590526,1.000000,0.984211,0.721053
0.000000,0.590526,1.000000,0.984211,0.721053
0.000000,0.561053,0.998947,0.980000,0.702105
0.000000,0.561053,0.998947,0.980000,0.702105
0.000000,0.506316,0.994737,0.972632,0.667368
0.000000,0.506316,0.994737,0.972632,0.667368
0.000000,0.426316,0.985263,0.958947,0.604211
0.001053,0.336842,0.968421,0.931579,0.522105
0.001053,0.336842,0.968421,0.931579,0.522105
0.000000,0.270526,0.934737,0.877895,0.447368
0.000000,0.270526,0.934737,0.877895,0.447368
0.001053,0.225263,0.863158,0.763158,0.393684
0.001053,0.225263,0.863158,0.763158,0.393684
0.000000,0.194737,0.714737,0.560000,0.354737
0.000000,0.194737,0.714737,0.560000,0.354737
0.000000,0.150526,0.405263,0.304211,0.287368
0.000000,0.150526,0.405263,0.304211,0.287368
0.000000,0.124211,0.261053,0.226316,0.234737
0.000000,0.112632,0.223158,0.207368,0.216842
0.000000,0.112632,0.223158,0.207368,0.216842
0.000000,0.104211,0.197895,0.192632,0.203158
0.000000,0.104211,0.197895,0.192632,0.203158
0.000000,0.090526,0.165263,0.172632,0.178947
0.000000,0.090526,0.165263,0.172632,0.178947
0.000000,0.084211,0.154737,0.165263,0.170526
0.000000,0.084211,0.154737,0.165263,0.170526
0.000000,0.080000,0.147368,0.160000,0.163158
0.000000,0.080000,0.147368,0.160000,0.163158
0.000000,0.075789,0.141053,0.156842,0.157895
0.000000,0.075789,0.141053,0.156842,0.157895
0.000000,0.073684,0.136842,0.152632,0.153684
0.000000,0.073684,0.136842,0.152632,0.153684
0.000000,0.071579,0.133684,0.150526,0.150526
0.000000,0.071579,0.133684,0.150526,0.150526
0.000000,0.070526,0.131579,0.147368,0.147368
0.000000,0.070526,0.131579,0.147368,0.147368
0.000000,0.068421,0.128421,0.145263,0.145263
0.000000,0.068421,0.128421,0.145263,0.145263
0.000000,0.067368,0.127368,0.144211,0.143158
0.000000,0.067368,0.125263,0.143158,0.142105
0.000000,0.067368,0.125263,0.143158,0.142105
0.000000,0.066316,0.125263,0.141053,0.141053
0.000000,0.066316,0.125263,0.141053,0.141053
0.000000,0.065263,0.125263,0.140000,0.138947
0.000000,0.065263,0.125263,0.140000,0.138947
0.000000,0.065263,0.125263,0.138947,0.140000
0.000000,0.065263,0.125263,0.138947,0.140000
0.000000,0.067368,0.128421,0.138947,0.140000
0.000000,0.067368,0.128421,0.138947,0.140000
0.000000,0.070526,0.134737,0.137895,0.142105
0.000000,0.070526,0.134737,0.137895,0.142105
0.000000,0.087368,0.146316,0.137895,0.144211
0.000000,0.087368,0.146316,0.137895,0.144211
0.000000,0.132632,0.164211,0.138947,0.148421
0.000000,0.132632,0.164211,0.138947,0.148421
0.000000,0.229474,0.190526,0.140000,0.153684
0.000000,0.368421,0.227368,0.143158,0.162105
0.000000,0.368421,0.227368,0.143158,0.162105
0.000000,0.502105,0.255789,0.147368,0.170526
0.000000,0.614737,0.281053,0.154737,0.176842
0.000000,0.614737,0.281053,0.154737,0.176842
0.000000,0.694737,0.295789,0.160000,0.182105
0.000000,0.694737,0.295789,0.160000,0.182105
0.000000,0.763158,0.304211,0.165263,0.186316
0.000000,0.763158,0.304211,0.165263,0.186316
0.000000,0.824211,0.312632,0.172632,0.188421
0.000000,0.824211,0.312632,0.172632,0.188421
0.000000,0.866316,0.326316,0.186316,0.191579
0.000000,0.894737,0.342105,0.207368,0.195789
0.000000,0.894737,0.342105,0.207368,0.195789
0.000000,0.913684,0.357895,0.233684,0.198947
0.000000,0.913684,0.357895,0.233684,0.198947
0.000000,0.934737,0.383158,0.267368,0.203158
0.000000,0.934737,0.383158,0.267368,0.203158
0.000000,0.954737,0.429474,0.338947,0.210526
0.000000,0.954737,0.429474,0.338947,0.210526
0.000000,0.969474,0.500000,0.455789,0.216842
0.000000,0.978947,0.557895,0.552632,0.225263
0.000000,0.978947,0.557895,0.552632,0.225263
0.000000,0.984211,0.598947,0.609474,0.230526
0.000000,0.984211,0.598947,0.609474,0.230526
0.000000,0.990526,0.635790,0.660000,0.232632
0.000000,0.990526,0.635790,0.660000,0.232632
0.000000,0.994737,0.683158,0.715789,0.242105
0.000000,0.994737,0.683158,0.715789,0.242105
0.000000,0.996842,0.733684,0.766316,0.244211
0.000000,0.996842,0.733684,0.766316,0.244211
0.001053,0.997895,0.767368,0.793684,0.252632
0.001053,0.997895,0.767368,0.793684,0.252632
0.002105,1.000000,0.791579,0.814737,0.254737
0.002105,1.000000,0.791579,0.814737,0.254737
0.002105,0.998947,0.812632,0.830526,0.262105
0.003158,0.998947,0.827368,0.847368,0.272632
0.003158,0.998947,0.827368,0.847368,0.272632
0.005263,0.996842,0.841053,0.852632,0.284211
0.005263,0.994737,0.837895,0.852632,0.289474
0.005263,0.994737,0.837895,0.852632,0.289474
0.006316,0.992632,0.830526,0.845263,0.291579
0.007368,0.991579,0.821053,0.834737,0.292632
0.007368,0.991579,0.821053,0.834737,0.292632
0.006316,0.987368,0.805263,0.816842,0.289474
0.006316,0.987368,0.805263,0.816842,0.289474
0.006316,0.983158,0.782105,0.795789,0.278947
0.006316,0.974737,0.750526,0.758947,0.266316
0.006316,0.974737,0.750526,0.758947,0.266316
0.005263,0.954737,0.690526,0.690526,0.252632
0.005263,0.954737,0.690526,0.690526,0.252632
0.004211,0.906316,0.580000,0.564211,0.242105
0.004211,0.906316,0.580000,0.564211,0.242105
0.003158,0.773684,0.457895,0.445263,0.232632
0.003158,0.773684,0.457895,0.445263,0.232632
0.002105,0.558947,0.368421,0.367368,0.223158
0.000000,0.390526,0.301053,0.306316,0.216842
0.000000,0.390526,0.301053,0.306316,0.216842
0.002105,0.301053,0.253684,0.264211,0.207368
0.002105,0.301053,0.253684,0.264211,0.207368
0.001053,0.248421,0.217895,0.230526,0.196842
0.001053,0.248421,0.217895,0.230526,0.196842
0.001053,0.216842,0.193684,0.205263,0.186316
0.001053,0.216842,0.193684,0.205263,0.186316
0.000000,0.194737,0.175789,0.188421,0.176842
0.000000,0.177895,0.162105,0.172632,0.167368
0.000000,0.177895,0.162105,0.172632,0.167368
0.000000,0.163158,0.150526,0.163158,0.160000
0.000000,0.163158,0.150526,0.163158,0.160000
0.000000,0.151579,0.141053,0.154737,0.151579
0.000000,0.151579,0.141053,0.154737,0.151579
0.000000,0.141053,0.132632,0.147368,0.145263
0.000000,0.135789,0.128421,0.144211,0.143158
0.000000,0.135789,0.128421,0.144211,0.143158
0.000000,0.127368,0.123158,0.137895,0.136842
0.000000,0.120000,0.118947,0.134737,0.133684
0.000000,0.120000,0.118947,0.134737,0.133684
0.000000,0.115789,0.115789,0.131579,0.129474
0.000000,0.115789,0.115789,0.131579,0.129474
0.000000,0.112632,0.112632,0.128421,0.126316
0.000000,0.112632,0.112632,0.128421,0.126316
0.000000,0.109474,0.110526,0.126316,0.124211
0.000000,0.109474,0.110526,0.126316,0.124211
0.000000,0.106316,0.108421,0.124211,0.122105
0.000000,0.104211,0.106316,0.122105,0.120000
0.000000,0.104211,0.106316,0.122105,0.120000
0.000000,0.103158,0.107368,0.121053,0.117895
0.000000,0.103158,0.107368,0.121053,0.117895
0.000000,0.101053,0.103158,0.120000,0.116842
0.000000,0.101053,0.103158,0.120000,0.116842
0.000000,0.100000,0.103158,0.117895,0.115789
0.000000,0.100000,0.103158,0.117895,0.115789
0.000000,0.098947,0.102105,0.117895,0.114737
0.000000,0.097895,0.102105,0.116842,0.113684
0.000000,0.097895,0.102105,0.116842,0.113684
0.000000,0.096842,0.101053,0.115789,0.112632
0.000000,0.096842,0.101053,0.115789,0.112632
0.001053,0.094737,0.100000,0.113684,0.111579
0.001053,0.094737,0.100000,0.113684,0.111579
0.011579,0.093684,0.098947,0.113684,0.110526
0.011579,0.093684,0.098947,0.113684,0.110526
0.030526,0.092632,0.098947,0.111579,0.110526
0.077895,0.091579,0.098947,0.111579,0.109474
0.195789,0.091579,0.097895,0.110526,0.108421
0.195789,0.091579,0.097895,0.110526,0.108421
0.429474,0.090526,0.097895,0.109474,0.108421
0.429474,0.090526,0.097895,0.109474,0.108421
0.667368,0.088421,0.097895,0.109474,0.108421
0.667368,0.088421,0.097895,0.109474,0.108421
0.792632,0.088421,0.097895,0.108421,0.108421
0.895789,0.087368,0.097895,0.108421,0.108421
0.895789,0.087368,0.097895,0.108421,0.108421
0.968421,0.086316,0.097895,0.107368,0.107368
0.968421,0.086316,0.097895,0.107368,0.107368
1.000000,0.086316,0.097895,0.107368,0.107368
1.000000,0.086316,0.097895,0.107368,0.107368
1.000000,0.085263,0.097895,0.106316,0.107368
1.000000,0.085263,0.097895,0.106316,0.107368
1.000000,0.084211,0.098947,0.106316,0.106316
1.000000,0.084211,0.097895,0.105263,0.106316
1.000000,0.084211,0.097895,0.105263,0.106316
1.000000,0.083158,0.096842,0.105263,0.106316
1.000000,0.082105,0.096842,0.104211,0.106316
1.000000,0.082105,0.096842,0.104211,0.106316
1.000000,0.081053,0.096842,0.103158,0.106316
1.000000,0.081053,0.096842,0.103158,0.106316
1.000000,0.081053,0.100000,0.103158,0.105263
1.000000,0.080000,0.096842,0.102105,0.106316
1.000000,0.077895,0.095789,0.101053,0.106316
1.000000,0.077895,0.095789,0.101053,0.106316
1.000000,0.078947,0.094737,0.100000,0.105263
1.000000,0.078947,0.094737,0.100000,0.105263
1.000000,0.077895,0.093684,0.100000,0.105263
1.000000,0.077895,0.093684,0.100000,0.105263
1.000000,0.076842,0.093684,0.098947,0.105263
1.000000,0.076842,0.092632,0.097895,0.104211
1.000000,0.076842,0.091579,0.097895,0.104211
1.000000,0.076842,0.091579,0.097895,0.104211
1.000000,0.075789,0.090526,0.096842,0.103158
1.000000,0.075789,0.090526,0.096842,0.103158
1.000000,0.076842,0.090526,0.096842,0.103158
1.000000,0.076842,0.090526,0.096842,0.103158
1.000000,0.075789,0.090526,0.096842,0.103158
1.000000,0.075789,0.090526,0.096842,0.103158
1.000000,0.074737,0.090526,0.096842,0.104211
1.000000,0.074737,0.090526,0.095789,0.103158
1.000000,0.074737,0.090526,0.095789,0.103158
1.000000,0.074737,0.090526,0.094737,0.102105
1.000000,0.074737,0.090526,0.094737,0.102105
1.000000,0.074737,0.090526,0.094737,0.102105
1.000000,0.074737,0.090526,0.094737,0.102105
1.000000,0.070526,0.090526,0.094737,0.101053
1.000000,0.070526,0.090526,0.094737,0.101053
1.000000,0.073684,0.092632,0.094737,0.102105
1.000000,0.072632,0.092632,0.094737,0.100000
1.000000,0.072632,0.092632,0.094737,0.100000
0.964211,0.072632,0.093684,0.093684,0.100000
0.964211,0.072632,0.093684,0.093684,0.100000
0.893684,0.072632,0.094737,0.093684,0.100000
0.893684,0.072632,0.094737,0.093684,0.100000
0.773684,0.071579,0.093684,0.093684,0.097895
0.773684,0.071579,0.093684,0.093684,0.097895
0.608421,0.070526,0.093684,0.092632,0.098947
0.433684,0.070526,0.093684,0.092632,0.097895
0.433684,0.070526,0.093684,0.092632,0.097895
0.303158,0.066316,0.092632,0.092632,0.097895
0.303158,0.066316,0.092632,0.092632,0.097895
0.223158,0.067368,0.092632,0.091579,0.095789
0.223158,0.067368,0.092632,0.091579,0.095789
0.165263,0.066316,0.090526,0.090526,0.094737
0.165263,0.066316,0.090526,0.090526,0.094737
0.133684,0.065263,0.089474,0.089474,0.093684
0.114737,0.064211,0.087368,0.088421,0.091579
0.100000,0.063158,0.086316,0.086316,0.091579
0.100000,0.063158,0.086316,0.086316,0.091579
0.088421,0.062105,0.084211,0.084211,0.093684
0.088421,0.062105,0.084211,0.084211,0.093684
0.077895,0.061053,0.082105,0.083158,0.087368
0.077895,0.061053,0.082105,0.083158,0.087368
0.070526,0.058947,0.078947,0.081053,0.085263
0.070526,0.058947,0.078947,0.081053,0.085263
0.062105,0.057895,0.076842,0.078947,0.082105
0.062105,0.057895,0.076842,0.078947,0.082105
0.056842,0.056842,0.075789,0.076842,0.078947
0.056842,0.056842,0.075789,0.076842,0.078947
0.050526,0.055789,0.074737,0.075789,0.076842
0.050526,0.055789,0.074737,0.075789,0.076842
0.047368,0.055789,0.073684,0.074737,0.074737
0.047368,0.055789,0.073684,0.074737,0.074737
0.044211,0.054737,0.072632,0.073684,0.073684
0.042105,0.053684,0.071579,0.072632,0.071579
0.042105,0.053684,0.071579,0.072632,0.071579
0.041053,0.053684,0.071579,0.071579,0.071579
0.041053,0.053684,0.071579,0.071579,0.071579
0.038947,0.053684,0.073684,0.071579,0.069474
0.038947,0.053684,0.073684,0.071579,0.069474
0.038947,0.053684,0.072632,0.071579,0.069474
0.038947,0.053684,0.072632,0.071579,0.069474
0.035789,0.053684,0.072632,0.071579,0.069474
0.035789,0.053684,0.073684,0.071579,0.070526
0.035789,0.053684,0.073684,0.071579,0.070526
0.032632,0.053684,0.073684,0.071579,0.073684
0.032632,0.053684,0.073684,0.071579,0.073684
0.034737,0.053684,0.077895,0.073684,0.081053
0.034737,0.053684,0.077895,0.073684,0.081053
0.033684,0.053684,0.083158,0.077895,0.090526
0.033684,0.053684,0.083158,0.077895,0.090526
0.032632,0.054737,0.088421,0.088421,0.110526
0.032632,0.054737,0.094737,0.118947,0.162105
0.031579,0.054737,0.100000,0.194737,0.252632
0.031579,0.054737,0.100000,0.194737,0.252632
0.031579,0.055789,0.107368,0.368421,0.422105
0.031579,0.055789,0.107368,0.368421,0.422105
0.030526,0.055789,0.115789,0.554737,0.602105
0.030526,0.055789,0.115789,0.554737,0.602105
0.029474,0.056842,0.125263,0.710526,0.749474
0.029474,0.056842,0.125263,0.710526,0.749474
0.029474,0.056842,0.133684,0.821053,0.852632
0.029474,0.056842,0.133684,0.821053,0.852632
0.029474,0.057895,0.141053,0.885263,0.911579
0.029474,0.057895,0.141053,0.885263,0.911579
0.028421,0.058947,0.157895,0.950526,0.966316
0.028421,0.058947,0.157895,0.950526,0.966316
0.028421,0.058947,0.163158,0.964211,0.975789
0.028421,0.058947,0.163158,0.964211,0.975789
0.027368,0.058947,0.166316,0.969474,0.981053
0.026316,0.058947,0.169474,0.975789,0.984211
0.026316,0.058947,0.169474,0.975789,0.984211
0.026316,0.060000,0.173684,0.984211,0.988421
0.026316,0.060000,0.173684,0.984211,0.988421
0.026316,0.060000,0.180000,0.984211,0.993684
0.026316,0.060000,0.180000,0.984211,0.993684
0.026316,0.060000,0.190526,0.990526,0.991579
0.026316,0.060000,0.190526,0.990526,0.991579
0.029474,0.061053,0.209474,0.997895,0.990526
0.026316,0.061053,0.222105,1.000000,0.990526
0.026316,0.061053,0.222105,1.000000,0.990526
0.026316,0.061053,0.252632,1.000000,0.985263
0.026316,0.061053,0.252632,1.000000,0.985263
0.026316,0.063158,0.290526,1.000000,0.982105
0.026316,0.063158,0.290526,1.000000,0.982105
0.026316,0.063158,0.329474,1.000000,0.984211
0.025263,0.063158,0.365263,1.000000,0.980000
0.025263,0.063158,0.401053,1.000000,0.978947
0.025263,0.063158,0.401053,1.000000,0.978947
0.024211,0.064211,0.444211,1.000000,0.978947
0.024211,0.064211,0.444211,1.000000,0.978947
0.024211,0.064211,0.470526,1.000000,0.977895
0.024211,0.064211,0.470526,1.000000,0.977895
0.026316,0.065263,0.472632,1.000000,0.975789
0.026316,0.065263,0.472632,1.000000,0.975789
0.026316,0.064211,0.477895,1.000000,0.973684
0.026316,0.064211,0.477895,1.000000,0.973684
0.024211,0.065263,0.485263,1.000000,0.971579
0.024211,0.065263,0.485263,1.000000,0.971579
0.024211,0.065263,0.484211,1.000000,0.970526
0.024211,0.065263,0.484211,1.000000,0.970526
0.024211,0.065263,0.473684,0.996842,0.969474
0.024211,0.065263,0.473684,0.996842,0.969474
0.024211,0.065263,0.455789,0.991579,0.967368
0.024211,0.065263,0.455789,0.991579,0.967368
0.022105,0.066316,0.431579,0.986316,0.962105
0.023158,0.066316,0.397895,0.975789,0.945263
0.023158,0.066316,0.397895,0.975789,0.945263
0.023158,0.066316,0.360000,0.953684,0.913684
0.023158,0.066316,0.360000,0.953684,0.913684
0.023158,0.065263,0.325263,0.898947,0.855789
0.023158,0.065263,0.325263,0.898947,0.855789
0.022105,0.065263,0.287368,0.803158,0.762105
0.022105,0.065263,0.287368,0.803158,0.762105
0.022105,0.063158,0.252632,0.658947,0.622105
0.022105,0.063158,0.252632,0.658947,0.622105
0.022105,0.062105,0.220000,0.485263,0.491579
0.022105,0.060000,0.191579,0.360000,0.404211
0.022105,0.060000,0.191579,0.360000,0.404211
0.022105,0.058947,0.168421,0.288421,0.346316
0.022105,0.057895,0.148421,0.245263,0.301053
0.022105,0.057895,0.148421,0.245263,0.301053
0.022105,0.055789,0.130526,0.216842,0.266316
0.022105,0.055789,0.130526,0.216842,0.266316
0.021053,0.053684,0.117895,0.195789,0.242105
0.020000,0.051579,0.106316,0.180000,0.221053
0.020000,0.051579,0.106316,0.180000,0.221053
0.021053,0.050526,0.096842,0.168421,0.204211
0.021053,0.050526,0.096842,0.168421,0.204211
0.021053,0.048421,0.090526,0.156842,0.188421
0.021053,0.048421,0.090526,0.156842,0.188421
0.022105,0.047368,0.084211,0.148421,0.175789
0.022105,0.047368,0.084211,0.148421,0.175789
0.021053,0.046316,0.080000,0.141053,0.167368
0.021053,0.046316,0.080000,0.141053,0.167368
0.021053,0.044211,0.074737,0.134737,0.162105
0.021053,0.044211,0.074737,0.134737,0.162105
0.021053,0.043158,0.073684,0.129474,0.156842
0.021053,0.043158,0.073684,0.129474,0.156842
0.021053,0.042105,0.071579,0.126316,0.152632
0.021053,0.042105,0.071579,0.126316,0.152632
0.021053,0.041053,0.070526,0.123158,0.149474
0.021053,0.041053,0.070526,0.123158,0.149474
0.020000,0.041053,0.068421,0.122105,0.147368
0.021053,0.040000,0.067368,0.120000,0.146316
0.021053,0.040000,0.067368,0.120000,0.146316
0.020000,0.038947,0.068421,0.118947,0.145263
0.020000,0.038947,0.068421,0.118947,0.145263
0.020000,0.038947,0.067368,0.118947,0.145263
0.020000,0.038947,0.067368,0.118947,0.145263
0.022105,0.038947,0.067368,0.120000,0.145263
0.022105,0.038947,0.067368,0.120000,0.145263
0.020000,0.037895,0.070526,0.133684,0.145263
0.020000,0.037895,0.081053,0.210526,0.151579
0.020000,0.037895,0.081053,0.210526,0.151579
0.017895,0.036842,0.102105,0.365263,0.161053
0.020000,0.036842,0.140000,0.577895,0.188421
0.020000,0.036842,0.140000,0.577895,0.188421
0.020000,0.036842,0.140000,0.577895,0.188421
0.018947,0.036842,0.218947,0.766316,0.251579
0.020000,0.035789,0.338947,0.875789,0.356842
0.018947,0.035789,0.466316,0.923158,0.468421
0.018947,0.035789,0.466316,0.923158,0.468421
0.018947,0.036842,0.577895,0.951579,0.571579
0.018947,0.036842,0.577895,0.951579,0.571579
0.018947,0.035789,0.689474,0.975789,0.682105
0.018947,0.035789,0.689474,0.975789,0.682105
0.018947,0.035789,0.785263,0.993684,0.783158
0.018947,0.035789,0.785263,0.993684,0.783158
0.018947,0.036842,0.850526,1.000000,0.838947
0.018947,0.036842,0.850526,1.000000,0.838947
0.017895,0.036842,0.890526,1.000000,0.871579
0.017895,0.036842,0.890526,1.000000,0.871579
0.018947,0.036842,0.924211,1.000000,0.894737
0.018947,0.036842,0.924211,1.000000,0.894737
0.022105,0.036842,0.950526,1.000000,0.913684
0.022105,0.036842,0.950526,1.000000,0.913684
0.018947,0.037895,0.967368,1.000000,0.924211
0.018947,0.037895,0.967368,1.000000,0.924211
0.018947,0.037895,0.978947,1.000000,0.929474
0.018947,0.037895,0.988421,1.000000,0.931579
0.018947,0.037895,0.988421,1.000000,0.931579
0.017895,0.038947,0.995789,1.000000,0.931579
0.017895,0.038947,0.995789,1.000000,0.931579
0.017895,0.037895,1.000000,1.000000,0.927368
0.017895,0.037895,1.000000,1.000000,0.927368
0.018947,0.040000,1.000000,1.000000,0.920000
0.018947,0.040000,1.000000,1.000000,0.920000
0.017895,0.040000,1.000000,1.000000,0.913684
0.018947,0.040000,1.000000,1.000000,0.908421
0.018947,0.040000,1.000000,1.000000,0.908421
0.020000,0.041053,1.000000,1.000000,0.903158
0.020000,0.041053,1.000000,1.000000,0.903158
0.018947,0.042105,1.000000,1.000000,0.898947
0.018947,0.041053,1.000000,1.000000,0.895789
0.018947,0.041053,1.000000,1.000000,0.895789
0.017895,0.042105,1.000000,1.000000,0.893684
0.017895,0.042105,1.000000,1.000000,0.893684
0.018947,0.042105,1.000000,1.000000,0.889474
0.017895,0.042105,0.993684,1.000000,0.889474
0.017895,0.042105,0.993684,1.000000,0.889474
0.017895,0.043158,0.987368,1.000000,0.881053
0.017895,0.043158,0.987368,1.000000,0.881053
0.017895,0.044211,0.978947,0.994737,0.876842
0.017895,0.044211,0.978947,0.994737,0.876842
0.017895,0.044211,0.963158,0.986316,0.864210
0.017895,0.044211,0.963158,0.986316,0.864210
0.017895,0.044211,0.932632,0.970526,0.836842
0.017895,0.044211,0.884211,0.935789,0.772632
0.017895,0.044211,0.884211,0.935789,0.772632
0.016842,0.044211,0.797895,0.869474,0.661053
0.016842,0.044211,0.797895,0.869474,0.661053
0.015789,0.046316,0.672632,0.732632,0.545263
0.015789,0.046316,0.672632,0.732632,0.545263
0.015789,0.042105,0.528421,0.520000,0.465263
0.015789,0.042105,0.528421,0.520000,0.465263
0.015789,0.040000,0.411579,0.372632,0.401053
0.015789,0.040000,0.330526,0.290526,0.344211
0.015789,0.040000,0.330526,0.290526,0.344211
0.016842,0.038947,0.270526,0.247368,0.301053
0.016842,0.038947,0.270526,0.247368,0.301053
0.015789,0.037895,0.227368,0.218947,0.265263
0.015789,0.037895,0.227368,0.218947,0.265263
0.015789,0.035789,0.196842,0.198947,0.237895
0.015789,0.035789,0.196842,0.198947,0.237895
0.015789,0.035789,0.174737,0.185263,0.217895
0.015789,0.035789,0.174737,0.185263,0.217895
0.015789,0.034737,0.157895,0.175789,0.202105
0.015789,0.034737,0.157895,0.175789,0.202105
0.015789,0.032632,0.145263,0.168421,0.190526
0.015789,0.032632,0.145263,0.168421,0.190526
0.015789,0.031579,0.128421,0.158947,0.171579
0.015789,0.031579,0.128421,0.158947,0.171579
0.015789,0.030526,0.123158,0.154737,0.167368
0.014737,0.029474,0.118947,0.151579,0.162105
0.014737,0.029474,0.118947,0.151579,0.162105
0.015789,0.028421,0.115789,0.148421,0.160000
0.015789,0.028421,0.115789,0.148421,0.160000
0.015789,0.028421,0.113684,0.147368,0.156842
0.015789,0.028421,0.113684,0.147368,0.156842
0.015789,0.028421,0.113684,0.144211,0.154737
0.015789,0.028421,0.113684,0.144211,0.154737
0.014737,0.027368,0.114737,0.143158,0.153684
0.015789,0.028421,0.130526,0.141053,0.152632
0.015789,0.028421,0.130526,0.141053,0.152632
0.014737,0.028421,0.176842,0.141053,0.152632
0.014737,0.028421,0.176842,0.141053,0.152632
0.014737,0.028421,0.261053,0.140000,0.152632
0.014737,0.028421,0.261053,0.140000,0.152632
0.014737,0.028421,0.315789,0.140000,0.152632
0.014737,0.028421,0.315789,0.140000,0.152632
0.015789,0.030526,0.448421,0.141053,0.155789
0.014737,0.031579,0.600000,0.154737,0.163158
0.014737,0.031579,0.600000,0.154737,0.163158
0.015789,0.032632,0.718947,0.220000,0.172632
0.015789,0.032632,0.718947,0.220000,0.172632
0.014737,0.033684,0.791579,0.341053,0.194737
0.014737,0.033684,0.791579,0.341053,0.194737
0.014737,0.035789,0.850526,0.517895,0.218947
0.014737,0.035789,0.850526,0.517895,0.218947
0.014737,0.040000,0.900000,0.689474,0.244211
0.014737,0.040000,0.900000,0.689474,0.244211
0.013684,0.045263,0.932632,0.790526,0.275789
0.013684,0.045263,0.932632,0.790526,0.275789
0.014737,0.057895,0.963158,0.874737,0.351579
0.014737,0.057895,0.963158,0.874737,0.351579
0.013684,0.067368,0.976842,0.906316,0.390526
0.013684,0.067368,0.976842,0.906316,0.390526
0.013684,0.082105,0.988421,0.933684,0.432632
0.013684,0.082105,0.988421,0.933684,0.432632
0.013684,0.106316,0.998947,0.955790,0.472632
0.013684,0.136842,1.000000,0.969474,0.520000
0.013684,0.136842,1.000000,0.969474,0.520000
0.013684,0.170526,1.000000,0.976842,0.563158
0.013684,0.170526,1.000000,0.976842,0.563158
0.012632,0.212632,1.000000,0.983158,0.607368
0.012632,0.212632,1.000000,0.983158,0.607368
0.013684,0.270526,1.000000,0.989474,0.655789
0.013684,0.270526,1.000000,0.989474,0.655789
0.011579,0.386316,1.000000,0.995789,0.733684
0.011579,0.386316,1.000000,0.995789,0.733684
0.011579,0.418947,1.000000,0.996842,0.749474
0.011579,0.418947,1.000000,0.996842,0.749474
0.012632,0.447368,1.000000,0.997895,0.763158
0.012632,0.447368,1.000000,0.997895,0.763158
0.011579,0.476842,1.000000,0.997895,0.780000
0.011579,0.476842,1.000000,0.997895,0.780000
0.011579,0.501053,1.000000,0.995789,0.790526
0.012632,0.515789,1.000000,0.995789,0.791579
0.012632,0.515789,1.000000,0.995789,0.791579
0.011579,0.511579,1.000000,0.991579,0.778947
0.011579,0.511579,1.000000,0.991579,0.778947
0.011579,0.504211,1.000000,0.987368,0.770526
0.011579,0.504211,1.000000,0.987368,0.770526
0.010526,0.501053,1.000000,0.987368,0.768421
0.010526,0.501053,1.000000,0.987368,0.768421
0.011579,0.468421,1.000000,0.980000,0.743158
0.011579,0.468421,1.000000,0.980000,0.743158
0.011579,0.427368,1.000000,0.974737,0.714737
0.011579,0.427368,1.000000,0.974737,0.714737
0.011579,0.364211,0.994737,0.963158,0.668421
0.011579,0.364211,0.994737,0.963158,0.668421
0.010526,0.297895,0.982105,0.941053,0.603158
0.010526,0.297895,0.982105,0.941053,0.603158
0.009474,0.250526,0.960000,0.904211,0.531579
0.009474,0.217895,0.921053,0.840000,0.467368
0.009474,0.217895,0.921053,0.840000,0.467368
0.008421,0.192632,0.850526,0.724211,0.421053
0.008421,0.192632,0.850526,0.724211,0.421053
0.009474,0.171579,0.715789,0.544211,0.380000
0.009474,0.171579,0.715789,0.544211,0.380000
0.007368,0.154737,0.543158,0.396842,0.345263
0.007368,0.154737,0.543158,0.396842,0.345263
0.008421,0.138947,0.415789,0.312632,0.307368
0.007368,0.125263,0.327368,0.263158,0.277895
0.007368,0.125263,0.327368,0.263158,0.277895
0.007368,0.111579,0.266316,0.233684,0.252632
0.007368,0.111579,0.266316,0.233684,0.252632
0.007368,0.105263,0.229474,0.211579,0.231579
0.007368,0.105263,0.229474,0.211579,0.231579
0.007368,0.096842,0.204211,0.195789,0.216842
0.007368,0.096842,0.204211,0.195789,0.216842
0.007368,0.091579,0.186316,0.184211,0.203158
0.007368,0.086316,0.173684,0.175789,0.194737
0.007368,0.086316,0.173684,0.175789,0.194737
0.006316,0.083158,0.163158,0.170526,0.186316
0.006316,0.083158,0.163158,0.170526,0.186316
0.006316,0.080000,0.155789,0.165263,0.181053
0.006316,0.080000,0.155789,0.165263,0.181053
0.006316,0.077895,0.151579,0.162105,0.176842
0.006316,0.077895,0.151579,0.162105,0.176842
0.006316,0.074737,0.149474,0.158947,0.173684
0.006316,0.073684,0.144211,0.155789,0.170526
0.006316,0.073684,0.144211,0.155789,0.170526
0.005263,0.072632,0.142105,0.153684,0.168421
0.006316,0.071579,0.141053,0.152632,0.165263
0.006316,0.071579,0.141053,0.152632,0.165263
0.006316,0.070526,0.140000,0.150526,0.163158
0.006316,0.070526,0.140000,0.150526,0.163158
0.005263,0.070526,0.140000,0.149474,0.162105
0.005263,0.070526,0.140000,0.149474,0.162105
0.005263,0.073684,0.143158,0.148421,0.161053
0.005263,0.071579,0.149474,0.147368,0.160000
0.005263,0.071579,0.149474,0.147368,0.160000
0.007368,0.073684,0.161053,0.147368,0.161053
0.007368,0.073684,0.161053,0.147368,0.161053
0.005263,0.084211,0.178947,0.150526,0.162105
0.005263,0.084211,0.178947,0.150526,0.162105
0.006316,0.128421,0.208421,0.152632,0.165263
0.006316,0.128421,0.208421,0.152632,0.165263
0.006316,0.214737,0.234737,0.158947,0.170526
0.005263,0.322105,0.255789,0.170526,0.174737
0.005263,0.322105,0.255789,0.170526,0.174737
0.005263,0.445263,0.275789,0.186316,0.182105
0.005263,0.445263,0.275789,0.186316,0.182105
0.006316,0.596842,0.298947,0.205263,0.188421
0.006316,0.596842,0.298947,0.205263,0.188421
0.005263,0.787368,0.338947,0.242105,0.198947
0.005263,0.872632,0.362105,0.263158,0.203158
0.005263,0.872632,0.362105,0.263158,0.203158
0.004211,0.916842,0.395789,0.290526,0.208421
0.004211,0.916842,0.395789,0.290526,0.208421
0.001053,0.950526,0.438947,0.323158,0.212632
0.001053,0.950526,0.438947,0.323158,0.212632
0.006316,0.969474,0.492632,0.356842,0.215789
0.006316,0.969474,0.492632,0.356842,0.215789
0.005263,0.996842,0.597895,0.500000,0.220000
0.005263,0.996842,0.597895,0.500000,0.220000
0.005263,1.000000,0.650526,0.587368,0.225263
0.005263,1.000000,0.650526,0.587368,0.225263
0.005263,1.000000,0.698947,0.655789,0.231579
0.005263,1.000000,0.698947,0.655789,0.231579
0.005263,1.000000,0.740000,0.711579,0.238947
0.005263,1.000000,0.740000,0.711579,0.238947
0.004211,1.000000,0.769474,0.754737,0.243158
0.005263,1.000000,0.790526,0.785263,0.246316
0.005263,1.000000,0.790526,0.785263,0.246316
0.005263,1.000000,0.807368,0.812632,0.247368
0.005263,1.000000,0.807368,0.812632,0.247368
0.005263,1.000000,0.818947,0.834737,0.252632
0.005263,1.000000,0.818947,0.834737,0.252632
0.006316,1.000000,0.824211,0.844211,0.260000
0.006316,1.000000,0.824211,0.844211,0.260000
0.006316,1.000000,0.822105,0.844211,0.261053
0.006316,0.998947,0.807368,0.827368,0.257895
0.006316,0.998947,0.807368,0.827368,0.257895
0.006316,0.996842,0.790526,0.808421,0.252632
0.006316,0.996842,0.790526,0.808421,0.252632
0.006316,0.994737,0.777895,0.793684,0.247368
0.006316,0.994737,0.777895,0.793684,0.247368
0.006316,0.992632,0.761053,0.773684,0.241053
0.006316,0.992632,0.761053,0.773684,0.241053
0.005263,0.985263,0.735789,0.737895,0.234737
0.005263,0.973684,0.701053,0.676842,0.227368
0.005263,0.973684,0.701053,0.676842,0.227368
0.005263,0.957895,0.650526,0.601053,0.220000
0.005263,0.957895,0.650526,0.601053,0.220000
0.004211,0.934737,0.604211,0.532632,0.214737
0.004211,0.934737,0.604211,0.532632,0.214737
0.004211,0.883158,0.549474,0.461053,0.211579
0.004211,0.883158,0.549474,0.461053,0.211579
0.004211,0.740000,0.466316,0.378947,0.205263
0.004211,0.482105,0.371579,0.312632,0.198947
0.004211,0.482105,0.371579,0.312632,0.198947
0.004211,0.333684,0.297895,0.270526,0.190526
0.004211,0.267368,0.248421,0.242105,0.183158
0.004211,0.267368,0.248421,0.242105,0.183158
0.004211,0.245263,0.231579,0.231579,0.178947
0.004211,0.245263,0.231579,0.231579,0.178947
0.002105,0.213684,0.203158,0.211579,0.173684
0.002105,0.213684,0.203158,0.211579,0.173684
0.003158,0.190526,0.180000,0.194737,0.167368
0.003158,0.190526,0.180000,0.194737,0.167368
0.002105,0.174737,0.162105,0.180000,0.160000
0.002105,0.174737,0.162105,0.180000,0.160000
0.002105,0.161053,0.150526,0.170526,0.153684
0.002105,0.161053,0.150526,0.170526,0.153684
0.002105,0.151579,0.137895,0.162105,0.148421
0.002105,0.151579,0.137895,0.162105,0.148421
0.001053,0.143158,0.130526,0.154737,0.143158
0.001053,0.143158,0.130526,0.154737,0.143158
0.001053,0.137895,0.126316,0.151579,0.140000
0.001053,0.132632,0.122105,0.147368,0.136842
0.001053,0.132632,0.122105,0.147368,0.136842
0.002105,0.128421,0.118947,0.144211,0.133684
0.002105,0.128421,0.118947,0.144211,0.133684
0.001053,0.125263,0.116842,0.141053,0.131579
0.001053,0.125263,0.116842,0.141053,0.131579
0.000000,0.121053,0.114737,0.138947,0.129474
0.000000,0.121053,0.114737,0.138947,0.129474
0.000000,0.118947,0.112632,0.136842,0.127368
0.000000,0.116842,0.111579,0.135789,0.126316
0.000000,0.116842,0.111579,0.135789,0.126316
0.000000,0.115789,0.110526,0.133684,0.124211
0.000000,0.115789,0.110526,0.133684,0.124211
0.001053,0.112632,0.109474,0.131579,0.124211
0.005263,0.110526,0.108421,0.131579,0.122105
0.005263,0.110526,0.108421,0.131579,0.122105
0.008421,0.109474,0.107368,0.129474,0.121053
0.011579,0.108421,0.107368,0.128421,0.120000
0.011579,0.108421,0.107368,0.128421,0.120000
0.016842,0.107368,0.106316,0.127368,0.118947
0.016842,0.107368,0.106316,0.127368,0.118947
0.024211,0.105263,0.106316,0.127368,0.118947
0.024211,0.105263,0.106316,0.127368,0.118947
0.041053,0.104211,0.106316,0.126316,0.118947
0.041053,0.104211,0.106316,0.126316,0.118947
0.071579,0.103158,0.105263,0.125263,0.117895
0.071579,0.103158,0.105263,0.125263,0.117895
0.131579,0.101053,0.104211,0.124211,0.117895
0.131579,0.101053,0.104211,0.124211,0.117895
0.260000,0.101053,0.104211,0.123158,0.117895
0.260000,0.101053,0.104211,0.123158,0.117895
0.449474,0.098947,0.104211,0.123158,0.117895
0.449474,0.098947,0.104211,0.123158,0.117895
0.622105,0.097895,0.106316,0.122105,0.117895
0.622105,0.097895,0.106316,0.122105,0.117895
0.764211,0.097895,0.103158,0.122105,0.116842
0.883158,0.096842,0.103158,0.120000,0.116842
0.883158,0.096842,0.103158,0.120000,0.116842
0.945263,0.095789,0.103158,0.120000,0.115789
0.945263,0.095789,0.103158,0.120000,0.115789
0.981053,0.095789,0.102105,0.118947,0.115789
0.981053,0.095789,0.102105,0.118947,0.115789
1.000000,0.093684,0.102105,0.118947,0.114737
1.000000,0.093684,0.102105,0.118947,0.114737
1.000000,0.094737,0.103158,0.117895,0.114737
1.000000,0.093684,0.103158,0.117895,0.113684
1.000000,0.091579,0.103158,0.117895,0.114737
1.000000,0.091579,0.103158,0.117895,0.114737
1.000000,0.090526,0.102105,0.116842,0.113684
1.000000,0.090526,0.103158,0.116842,0.113684
1.000000,0.090526,0.103158,0.116842,0.113684
1.000000,0.089474,0.102105,0.115789,0.112632
1.000000,0.089474,0.102105,0.115789,0.112632
1.000000,0.088421,0.102105,0.114737,0.112632
1.000000,0.088421,0.101053,0.113684,0.111579
1.000000,0.088421,0.101053,0.113684,0.111579
1.000000,0.087368,0.100000,0.111579,0.111579
1.000000,0.087368,0.100000,0.111579,0.111579
1.000000,0.087368,0.098947,0.111579,0.110526
1.000000,0.087368,0.098947,0.111579,0.110526
1.000000,0.086316,0.098947,0.110526,0.110526
1.000000,0.086316,0.098947,0.110526,0.110526
1.000000,0.086316,0.098947,0.109474,0.109474
1.000000,0.086316,0.098947,0.109474,0.109474
1.000000,0.085263,0.097895,0.108421,0.108421
1.000000,0.085263,0.097895,0.108421,0.108421
1.000000,0.085263,0.097895,0.107368,0.107368
1.000000,0.085263,0.097895,0.107368,0.107368
1.000000,0.084211,0.097895,0.106316,0.106316
1.000000,0.084211,0.097895,0.106316,0.106316
1.000000,0.084211,0.097895,0.107368,0.106316
1.000000,0.084211,0.097895,0.107368,0.106316
1.000000,0.083158,0.097895,0.106316,0.106316
1.000000,0.083158,0.096842,0.105263,0.106316
1.000000,0.083158,0.096842,0.105263,0.106316
1.000000,0.082105,0.097895,0.104211,0.105263
1.000000,0.082105,0.097895,0.104211,0.105263
1.000000,0.081053,0.096842,0.104211,0.105263
1.000000,0.081053,0.096842,0.104211,0.105263
0.970526,0.081053,0.096842,0.102105,0.104211
0.970526,0.081053,0.096842,0.102105,0.104211
0.860000,0.078947,0.094737,0.100000,0.103158
0.672632,0.077895,0.091579,0.096842,0.102105
0.672632,0.077895,0.091579,0.096842,0.102105
0.457895,0.075789,0.091579,0.094737,0.101053
0.457895,0.075789,0.091579,0.094737,0.101053
0.292632,0.074737,0.086316,0.091579,0.098947
0.292632,0.074737,0.086316,0.091579,0.098947
0.203158,0.072632,0.084211,0.088421,0.097895
0.156842,0.071579,0.081053,0.086316,0.095789
0.128421,0.070526,0.080000,0.084211,0.093684
0.128421,0.070526,0.080000,0.084211,0.093684
0.113684,0.069474,0.077895,0.082105,0.091579
0.113684,0.069474,0.077895,0.082105,0.091579
0.101053,0.068421,0.076842,0.080000,0.090526
0.101053,0.068421,0.076842,0.080000,0.090526
0.089474,0.067368,0.075789,0.078947,0.089474
0.089474,0.067368,0.075789,0.078947,0.089474
0.082105,0.067368,0.075789,0.076842,0.087368
0.082105,0.067368,0.075789,0.076842,0.087368
0.076842,0.065263,0.074737,0.076842,0.087368
0.076842,0.065263,0.074737,0.076842,0.087368
0.072632,0.065263,0.075789,0.075789,0.086316
0.072632,0.065263,0.075789,0.075789,0.086316
0.068421,0.065263,0.077895,0.075789,0.086316
0.068421,0.065263,0.077895,0.075789,0.086316
0.065263,0.065263,0.082105,0.074737,0.085263
0.065263,0.065263,0.082105,0.074737,0.085263
0.062105,0.065263,0.085263,0.075789,0.086316
0.062105,0.065263,0.089474,0.074737,0.087368
0.062105,0.065263,0.089474,0.074737,0.087368
0.058947,0.066316,0.095789,0.074737,0.088421
0.058947,0.066316,0.095789,0.074737,0.088421
0.055789,0.066316,0.109474,0.075789,0.089474
0.055789,0.066316,0.109474,0.075789,0.089474
0.055789,0.068421,0.133684,0.076842,0.093684
0.055789,0.068421,0.133684,0.076842,0.093684
0.054737,0.069474,0.163158,0.083158,0.097895
0.053684,0.071579,0.201053,0.093684,0.104211
0.053684,0.071579,0.201053,0.093684,0.104211
0.052632,0.074737,0.265263,0.122105,0.118947
0.052632,0.074737,0.265263,0.122105,0.118947
0.051579,0.078947,0.356842,0.188421,0.147368
0.051579,0.088421,0.457895,0.292632,0.205263
0.051579,0.088421,0.457895,0.292632,0.205263
0.050526,0.114737,0.562105,0.437895,0.297895
0.050526,0.114737,0.562105,0.437895,0.297895
0.049474,0.186316,0.692632,0.626316,0.450526
0.049474,0.354737,0.807368,0.778947,0.612632
0.049474,0.354737,0.807368,0.778947,0.612632
0.050526,0.568421,0.875789,0.871579,0.741053
0.050526,0.568421,0.875789,0.871579,0.741053
0.053684,0.740000,0.920000,0.925263,0.840000
0.053684,0.740000,0.920000,0.925263,0.840000
0.065263,0.855789,0.950526,0.960000,0.902105
0.065263,0.855789,0.950526,0.960000,0.902105
0.103158,0.920000,0.971579,0.976842,0.937895
0.175789,0.951579,0.986316,0.990526,0.957895
0.175789,0.951579,0.986316,0.990526,0.957895
0.310526,0.978947,0.996842,1.000000,0.972632
0.310526,0.978947,0.996842,1.000000,0.972632
0.475789,0.993684,1.000000,1.000000,0.981053
0.475789,0.993684,1.000000,1.000000,0.981053
0.633684,1.000000,1.000000,1.000000,0.987368
0.633684,1.000000,1.000000,1.000000,0.987368
0.734737,1.000000,1.000000,1.000000,0.995789
0.801053,1.000000,1.000000,1.000000,0.992632
0.801053,1.000000,1.000000,1.000000,0.992632
0.860000,1.000000,1.000000,1.000000,0.998947
0.860000,1.000000,1.000000,1.000000,0.998947
0.896842,1.000000,1.000000,1.000000,0.991579
0.896842,1.000000,1.000000,1.000000,0.991579
0.920000,0.997895,1.000000,1.000000,0.991579
0.920000,0.997895,1.000000,1.000000,0.991579
0.941053,0.996842,1.000000,1.000000,0.992632
0.953684,0.996842,1.000000,1.000000,0.992632
0.953684,0.996842,1.000000,1.000000,0.992632
0.973684,0.997895,1.000000,1.000000,0.993684
0.982105,0.998947,1.000000,1.000000,0.994737
0.982105,0.998947,1.000000,1.000000,0.994737
0.991579,0.997895,1.000000,1.000000,0.996842
0.991579,0.997895,1.000000,1.000000,0.996842
0.996842,1.000000,1.000000,0.997895,0.996842
1.000000,0.998947,1.000000,0.996842,0.995789
1.000000,0.998947,1.000000,0.996842,0.995789
1.000000,0.998947,1.000000,0.995789,0.995789
1.000000,0.998947,1.000000,0.995789,0.995789
1.000000,1.000000,1.000000,0.994737,0.995789
1.000000,1.000000,1.000000,0.994737,0.995789
1.000000,1.000000,1.000000,0.991579,0.994737
1.000000,1.000000,1.000000,0.991579,0.994737
1.000000,0.996842,1.000000,0.991579,0.995789
1.000000,0.995789,1.000000,0.990526,0.996842
1.000000,0.995789,1.000000,0.990526,0.996842
1.000000,0.995789,1.000000,0.989474,0.993684
1.000000,0.995789,1.000000,0.989474,0.993684
0.994737,0.992632,1.000000,0.987368,0.992632
0.994737,0.992632,1.000000,0.987368,0.992632
0.988421,0.992632,1.000000,0.986316,0.988421
0.988421,0.992632,1.000000,0.986316,0.988421
0.977895,0.990526,1.000000,0.984211,0.985263
0.967368,0.987368,1.000000,0.984211,0.981053
0.967368,0.987368,1.000000,0.984211,0.981053
0.946316,0.985263,1.000000,0.982105,0.975789
0.946316,0.985263,1.000000,0.982105,0.975789
0.885263,0.980000,0.992632,0.981053,0.968421
0.885263,0.980000,0.992632,0.981053,0.968421
0.728421,0.974737,0.981053,0.977895,0.957895
0.728421,0.974737,0.981053,0.977895,0.957895
0.500000,0.968421,0.973684,0.971579,0.938947
0.500000,0.968421,0.973684,0.971579,0.938947
0.335790,0.958947,0.958947,0.962105,0.903158
0.240000,0.934737,0.937895,0.944210,0.842105
0.240000,0.934737,0.937895,0.944210,0.842105
0.186316,0.875789,0.901053,0.902105,0.753684
0.186316,0.875789,0.901053,0.902105,0.753684
0.157895,0.736842,0.822105,0.824211,0.664210
0.157895,0.736842,0.822105,0.824211,0.664210
0.137895,0.547368,0.702105,0.704211,0.569474
0.137895,0.547368,0.702105,0.704211,0.569474
0.126316,0.400000,0.566316,0.561053,0.485263
0.115789,0.311579,0.460000,0.434737,0.414737
0.115789,0.311579,0.460000,0.434737,0.414737
0.106316,0.256842,0.377895,0.345263,0.357895
0.106316,0.256842,0.377895,0.345263,0.357895
0.097895,0.226316,0.312632,0.284211,0.315789
0.097895,0.226316,0.312632,0.284211,0.315789
0.091579,0.193684,0.266316,0.245263,0.283158
0.091579,0.193684,0.266316,0.245263,0.283158
0.086316,0.174737,0.230526,0.218947,0.256842
0.078947,0.158947,0.204211,0.197895,0.236842
0.078947,0.158947,0.204211,0.197895,0.236842
0.072632,0.148421,0.186316,0.182105,0.214737
0.072632,0.148421,0.186316,0.182105,0.214737
0.068421,0.138947,0.171579,0.171579,0.198947
0.068421,0.138947,0.171579,0.171579,0.198947
0.063158,0.131579,0.158947,0.163158,0.186316
0.063158,0.131579,0.158947,0.163158,0.186316
0.056842,0.125263,0.148421,0.156842,0.172632
0.053684,0.118947,0.140000,0.150526,0.160000
0.053684,0.118947,0.140000,0.150526,0.160000
0.049474,0.114737,0.133684,0.145263,0.150526
0.049474,0.114737,0.133684,0.145263,0.150526
0.046316,0.110526,0.129474,0.141053,0.145263
0.046316,0.110526,0.129474,0.141053,0.145263
0.043158,0.109474,0.126316,0.138947,0.141053
0.043158,0.109474,0.126316,0.138947,0.141053
0.040000,0.105263,0.124211,0.135789,0.137895
0.038947,0.104211,0.121053,0.133684,0.134737
0.038947,0.104211,0.121053,0.133684,0.134737
0.036842,0.102105,0.118947,0.131579,0.133684
0.035789,0.100000,0.118947,0.130526,0.132632
0.035789,0.100000,0.118947,0.130526,0.132632
0.034737,0.097895,0.118947,0.127368,0.132632
0.034737,0.097895,0.118947,0.127368,0.132632
0.033684,0.097895,0.121053,0.128421,0.133684
0.033684,0.096842,0.128421,0.127368,0.135789
0.033684,0.096842,0.128421,0.127368,0.135789
0.033684,0.095789,0.152632,0.127368,0.138947
0.033684,0.095789,0.152632,0.127368,0.138947
0.033684,0.096842,0.203158,0.128421,0.145263
0.033684,0.096842,0.203158,0.128421,0.145263
0.035789,0.100000,0.265263,0.143158,0.154737
0.035789,0.100000,0.265263,0.143158,0.154737
0.034737,0.112632,0.354737,0.218947,0.189474
0.037895,0.153684,0.496842,0.405263,0.267368
0.037895,0.153684,0.496842,0.405263,0.267368
0.040000,0.246316,0.642105,0.607368,0.390526
0.040000,0.246316,0.642105,0.607368,0.390526
0.046316,0.376842,0.734737,0.733684,0.517895
0.046316,0.376842,0.734737,0.733684,0.517895
0.057895,0.501053,0.805263,0.817895,0.632632
0.057895,0.501053,0.805263,0.817895,0.632632
0.071579,0.629474,0.860000,0.881053,0.743158
0.089474,0.764211,0.904211,0.925263,0.830526
0.089474,0.764211,0.904211,0.925263,0.830526
0.115789,0.849474,0.928421,0.949474,0.880000
0.115789,0.849474,0.928421,0.949474,0.880000
0.145263,0.902105,0.947368,0.968421,0.922105
0.145263,0.902105,0.947368,0.968421,0.922105
0.172632,0.938947,0.964211,0.983158,0.946316
0.172632,0.938947,0.964211,0.983158,0.946316
0.201053,0.961053,0.975789,0.991579,0.962105
0.260000,0.977895,0.985263,0.995789,0.972632
0.335790,0.985263,0.989474,1.000000,0.977895
0.335790,0.985263,0.989474,1.000000,0.977895
0.422105,0.992632,0.995789,1.000000,0.982105
0.422105,0.992632,0.995789,1.000000,0.982105
0.490526,0.992632,0.996842,1.000000,0.985263
0.490526,0.992632,0.996842,1.000000,0.985263
0.552632,0.992632,0.998947,1.000000,0.986316
0.552632,0.992632,0.998947,1.000000,0.986316
0.596842,0.994737,1.000000,1.000000,0.985263
0.652632,0.992632,1.000000,1.000000,0.987368
0.652632,0.992632,1.000000,1.000000,0.987368
0.693684,0.994737,1.000000,1.000000,0.988421
0.693684,0.994737,1.000000,1.000000,0.988421
0.726316,0.994737,1.000000,0.997895,0.990526
0.726316,0.994737,1.000000,0.997895,0.990526
0.751579,0.995789,1.000000,0.997895,0.992632
0.751579,0.995789,1.000000,0.997895,0.992632
0.772632,0.996842,1.000000,0.994737,0.994737
0.798947,0.995789,1.000000,0.993684,0.995789
0.798947,0.995789,1.000000,0.993684,0.995789
0.826316,0.997895,1.000000,0.991579,0.996842
0.826316,0.997895,1.000000,0.991579,0.996842
0.848421,0.994737,1.000000,0.989474,0.998947
0.848421,0.994737,1.000000,0.989474,0.998947
0.863158,0.994737,1.000000,0.987368,0.997895
0.863158,0.994737,1.000000,0.987368,0.997895
0.874737,0.994737,1.000000,0.986316,0.998947
0.881053,0.993684,1.000000,0.985263,0.997895
0.881053,0.993684,1.000000,0.985263,0.997895
0.886316,0.990526,1.000000,0.985263,0.997895
0.886316,0.990526,1.000000,0.985263,0.997895
0.885263,0.989474,1.000000,0.982105,0.996842
0.885263,0.989474,1.000000,0.982105,0.996842
0.886316,0.987368,1.000000,0.981053,0.996842
0.886316,0.987368,1.000000,0.981053,0.996842
0.870526,0.985263,1.000000,0.975789,0.993684
0.870526,0.985263,1.000000,0.975789,0.993684
0.857895,0.984211,1.000000,0.975789,0.991579
0.857895,0.984211,1.000000,0.975789,0.991579
0.846316,0.985263,1.000000,0.974737,0.988421
0.846316,0.985263,1.000000,0.974737,0.988421
0.834737,0.983158,1.000000,0.972632,0.985263
0.834737,0.983158,1.000000,0.972632,0.985263
0.822105,0.983158,1.000000,0.972632,0.982105
0.796842,0.982105,1.000000,0.970526,0.977895
0.796842,0.982105,1.000000,0.970526,0.977895
0.752632,0.978947,0.997895,0.968421,0.973684
0.752632,0.978947,0.997895,0.968421,0.973684
0.655789,0.973684,0.989474,0.968421,0.968421
0.655789,0.973684,0.989474,0.968421,0.968421
0.491579,0.970526,0.975789,0.964211,0.956842
0.491579,0.970526,0.975789,0.964211,0.956842
0.355789,0.965263,0.963158,0.960000,0.941053
0.272632,0.954737,0.950526,0.951579,0.907368
0.272632,0.954737,0.950526,0.951579,0.907368
0.216842,0.938947,0.931579,0.933684,0.852632
0.216842,0.938947,0.931579,0.933684,0.852632
0.180000,0.908421,0.896842,0.904211,0.770526
0.180000,0.908421,0.896842,0.904211,0.770526
0.155789,0.833684,0.844211,0.853684,0.681053
0.155789,0.833684,0.844211,0.853684,0.681053
0.141053,0.695789,0.760000,0.768421,0.607368
0.134737,0.625263,0.711579,0.712632,0.570526
0.134737,0.625263,0.711579,0.712632,0.570526
0.125263,0.507368,0.603158,0.589474,0.497895
0.125263,0.507368,0.603158,0.589474,0.497895
0.115789,0.410526,0.501053,0.469474,0.430526
0.115789,0.410526,0.501053,0.469474,0.430526
0.106316,0.338947,0.422105,0.384211,0.378947
0.106316,0.338947,0.422105,0.384211,0.378947
0.101053,0.289474,0.364211,0.324211,0.342105
0.095789,0.254737,0.312632,0.274737,0.309474
0.091579,0.224211,0.265263,0.235789,0.278947
0.091579,0.224211,0.265263,0.235789,0.278947
0.084211,0.197895,0.228421,0.209474,0.252632
0.084211,0.197895,0.228421,0.209474,0.252632
0.077895,0.178947,0.203158,0.189474,0.231579
0.077895,0.178947,0.203158,0.189474,0.231579
0.072632,0.164211,0.185263,0.174737,0.212632
0.072632,0.164211,0.185263,0.174737,0.212632
0.066316,0.151579,0.168421,0.164211,0.196842
0.062105,0.141053,0.155789,0.154737,0.182105
0.062105,0.141053,0.155789,0.154737,0.182105
0.057895,0.131579,0.144211,0.147368,0.167368
0.057895,0.131579,0.144211,0.147368,0.167368
0.053684,0.124211,0.134737,0.142105,0.153684
0.053684,0.124211,0.134737,0.142105,0.153684
0.050526,0.115789,0.127368,0.136842,0.144211
0.050526,0.115789,0.127368,0.136842,0.144211
0.046316,0.112632,0.122105,0.132632,0.136842
0.040000,0.109474,0.117895,0.129474,0.132632
0.040000,0.109474,0.117895,0.129474,0.132632
0.041053,0.109474,0.114737,0.126316,0.128421
0.041053,0.109474,0.114737,0.126316,0.128421
0.040000,0.104211,0.112632,0.124211,0.126316
0.040000,0.104211,0.112632,0.124211,0.126316
0.040000,0.103158,0.111579,0.122105,0.125263
0.040000,0.103158,0.111579,0.122105,0.125263
0.037895,0.102105,0.109474,0.121053,0.124211
0.035789,0.101053,0.109474,0.120000,0.124211
0.035789,0.101053,0.109474,0.120000,0.124211
0.035789,0.101053,0.110526,0.117895,0.127368
0.035789,0.101053,0.110526,0.117895,0.127368
0.035789,0.100000,0.117895,0.117895,0.132632
0.035789,0.100000,0.117895,0.117895,0.132632
0.033684,0.101053,0.144211,0.120000,0.141053
0.033684,0.101053,0.144211,0.120000,0.141053
0.035789,0.120000,0.330526,0.294737,0.209474
0.035789,0.120000,0.330526,0.294737,0.209474
0.034737,0.183158,0.495789,0.517895,0.316842
0.034737,0.183158,0.495789,0.517895,0.316842
0.035789,0.328421,0.674737,0.715789,0.471579
0.035789,0.328421,0.674737,0.715789,0.471579
0.036842,0.528421,0.797895,0.836842,0.637895
0.036842,0.528421,0.797895,0.836842,0.637895
0.037895,0.722105,0.872632,0.902105,0.765263
0.037895,0.722105,0.872632,0.902105,0.765263
0.040000,0.843158,0.918947,0.941053,0.847368
0.040000,0.843158,0.918947,0.941053,0.847368
0.040000,0.907368,0.947368,0.972632,0.905263
0.040000,0.907368,0.947368,0.972632,0.905263
0.043158,0.946316,0.966316,0.991579,0.941053
0.043158,0.946316,0.966316,0.991579,0.941053
0.048421,0.967368,0.980000,1.000000,0.961053
0.048421,0.967368,0.980000,1.000000,0.961053
0.062105,0.982105,0.990526,1.000000,0.970526
0.089474,0.993684,0.996842,1.000000,0.972632
0.089474,0.993684,0.996842,1.000000,0.972632
0.148421,0.997895,1.000000,1.000000,0.976842
0.148421,0.997895,1.000000,1.000000,0.976842
0.247368,0.996842,1.000000,1.000000,0.974737
0.247368,0.996842,1.000000,1.000000,0.974737
0.350526,0.993684,1.000000,1.000000,0.972632
0.350526,0.993684,1.000000,1.000000,0.972632
0.434737,0.990526,1.000000,1.000000,0.971579
0.434737,0.990526,1.000000,1.000000,0.971579
0.504211,0.988421,1.000000,1.000000,0.972632
0.504211,0.988421,1.000000,1.000000,0.972632
0.567368,0.986316,1.000000,1.000000,0.973684
0.567368,0.986316,1.000000,1.000000,0.973684
0.616842,0.985263,1.000000,1.000000,0.978947
0.616842,0.985263,1.000000,1.000000,0.978947
0.650526,0.986316,1.000000,0.997895,0.982105
0.687368,0.988421,1.000000,1.000000,0.984211
0.687368,0.988421,1.000000,1.000000,0.984211
0.712632,0.986316,1.000000,0.991579,0.984211
0.736842,0.987368,1.000000,0.990526,0.984211
0.736842,0.987368,1.000000,0.990526,0.984211
0.760000,0.985263,1.000000,0.988421,0.986316
0.760000,0.985263,1.000000,0.988421,0.986316
0.782105,0.987368,1.000000,0.987368,0.987368
0.782105,0.987368,1.000000,0.987368,0.987368
0.797895,0.985263,1.000000,0.984211,0.987368
0.797895,0.985263,1.000000,0.984211,0.987368
0.810526,0.985263,1.000000,0.983158,0.986316
0.810526,0.985263,1.000000,0.983158,0.986316
0.814737,0.984211,1.000000,0.982105,0.986316
0.814737,0.984211,1.000000,0.982105,0.986316
0.823158,0.983158,1.000000,0.982105,0.986316
0.823158,0.983158,1.000000,0.982105,0.986316
0.827368,0.983158,1.000000,0.980000,0.985263
0.827368,0.983158,1.000000,0.980000,0.985263
0.831579,0.982105,1.000000,0.978947,0.985263
0.831579,0.982105,1.000000,0.978947,0.985263
0.828421,0.980000,1.000000,0.978947,0.984211
0.826316,0.978947,1.000000,0.977895,0.984211
0.826316,0.978947,1.000000,0.977895,0.984211
0.825263,0.977895,1.000000,0.977895,0.983158
0.825263,0.977895,1.000000,0.977895,0.983158
0.821053,0.978947,1.000000,0.976842,0.981053
0.821053,0.978947,1.000000,0.976842,0.981053
0.814737,0.977895,1.000000,0.975789,0.980000
0.814737,0.977895,1.000000,0.975789,0.980000
0.810526,0.975789,1.000000,0.974737,0.980000
0.804211,0.974737,1.000000,0.974737,0.976842
0.804211,0.974737,1.000000,0.974737,0.976842
0.800000,0.973684,1.000000,0.974737,0.975789
0.796842,0.973684,1.000000,0.972632,0.974737
0.796842,0.973684,1.000000,0.972632,0.974737
0.791579,0.973684,1.000000,0.972632,0.973684
0.791579,0.973684,1.000000,0.972632,0.973684
0.788421,0.973684,1.000000,0.972632,0.972632
0.785263,0.972632,1.000000,0.971579,0.971579
0.785263,0.972632,1.000000,0.971579,0.971579
0.781053,0.970526,1.000000,0.971579,0.971579
0.781053,0.970526,1.000000,0.971579,0.971579
0.778947,0.971579,1.000000,0.971579,0.969474
0.778947,0.971579,1.000000,0.971579,0.969474
0.774737,0.970526,1.000000,0.971579,0.968421
0.774737,0.970526,1.000000,0.971579,0.968421
0.773684,0.971579,1.000000,0.970526,0.969474
0.773684,0.971579,1.000000,0.970526,0.969474
0.770526,0.969474,1.000000,0.969474,0.968421
0.770526,0.969474,1.000000,0.969474,0.968421
0.769474,0.970526,1.000000,0.969474,0.967368
0.769474,0.970526,1.000000,0.969474,0.967368
0.768421,0.969474,1.000000,0.968421,0.966316
0.768421,0.969474,1.000000,0.968421,0.966316
0.768421,0.968421,1.000000,0.968421,0.965263
0.768421,0.968421,1.000000,0.968421,0.965263
0.766316,0.969474,1.000000,0.968421,0.965263
0.764211,0.967368,1.000000,0.968421,0.965263
0.764211,0.967368,1.000000,0.968421,0.965263
0.762105,0.967368,1.000000,0.966316,0.964211
0.762105,0.967368,1.000000,0.966316,0.964211
0.761053,0.966316,1.000000,0.970526,0.964211
0.761053,0.966316,1.000000,0.970526,0.964211
0.758947,0.967368,1.000000,0.966316,0.963158
0.758947,0.967368,1.000000,0.966316,0.963158
0.757895,0.966316,1.000000,0.966316,0.962105
0.744210,0.965263,1.000000,0.967368,0.961053
0.744210,0.965263,1.000000,0.967368,0.961053
0.710526,0.964211,1.000000,0.966316,0.958947
0.710526,0.964211,1.000000,0.966316,0.958947
0.631579,0.962105,0.994737,0.965263,0.956842
0.477895,0.955790,0.978947,0.963158,0.947368
0.477895,0.955790,0.978947,0.963158,0.947368
0.341053,0.948421,0.967368,0.958947,0.934737
0.341053,0.948421,0.967368,0.958947,0.934737
0.253684,0.938947,0.954737,0.950526,0.906316
0.200000,0.917895,0.933684,0.935789,0.861053
0.200000,0.917895,0.933684,0.935789,0.861053
0.168421,0.890526,0.906316,0.911579,0.798947
0.168421,0.890526,0.906316,0.911579,0.798947
0.148421,0.863158,0.882105,0.885263,0.736842
0.148421,0.863158,0.882105,0.885263,0.736842
0.135789,0.827368,0.857895,0.846316,0.665263
0.135789,0.827368,0.857895,0.846316,0.665263
0.129474,0.800000,0.841053,0.818947,0.630526
0.117895,0.712632,0.786316,0.735789,0.556842
0.117895,0.712632,0.786316,0.735789,0.556842
0.106316,0.589474,0.691579,0.609474,0.482105
0.106316,0.589474,0.691579,0.609474,0.482105
0.103158,0.466316,0.576842,0.485263,0.418947
0.103158,0.466316,0.576842,0.485263,0.418947
0.095789,0.372632,0.474737,0.393684,0.366316
0.095789,0.372632,0.474737,0.393684,0.366316
0.090526,0.307368,0.387368,0.317895,0.324211
0.085263,0.258947,0.312632,0.260000,0.286316
0.085263,0.258947,0.312632,0.260000,0.286316
0.087368,0.222105,0.258947,0.225263,0.257895
0.087368,0.222105,0.258947,0.225263,0.257895
0.074737,0.196842,0.224211,0.203158,0.233684
0.074737,0.196842,0.224211,0.203158,0.233684
0.070526,0.180000,0.201053,0.186316,0.214737
0.070526,0.180000,0.201053,0.186316,0.214737
0.066316,0.164211,0.183158,0.174737,0.198947
0.062105,0.153684,0.168421,0.164211,0.183158
0.058947,0.142105,0.155789,0.155789,0.169474
0.058947,0.142105,0.155789,0.155789,0.169474
0.053684,0.131579,0.144211,0.148421,0.153684
0.053684,0.131579,0.144211,0.148421,0.153684
0.050526,0.123158,0.134737,0.143158,0.141053
0.050526,0.123158,0.134737,0.143158,0.141053
0.047368,0.114737,0.125263,0.136842,0.128421
0.044211,0.107368,0.115789,0.129474,0.117895
0.044211,0.107368,0.115789,0.129474,0.117895
0.042105,0.100000,0.106316,0.117895,0.107368
0.042105,0.100000,0.106316,0.117895,0.107368
0.040000,0.095789,0.096842,0.105263,0.098947
0.040000,0.095789,0.096842,0.105263,0.098947
0.037895,0.088421,0.090526,0.095789,0.093684
0.037895,0.088421,0.090526,0.095789,0.093684
0.034737,0.085263,0.085263,0.089474,0.089474
0.034737,0.085263,0.085263,0.089474,0.089474
0.033684,0.082105,0.082105,0.085263,0.087368
0.032632,0.081053,0.078947,0.082105,0.084211
0.032632,0.081053,0.078947,0.082105,0.084211
0.031579,0.078947,0.076842,0.078947,0.081053
0.031579,0.078947,0.076842,0.078947,0.081053
0.030526,0.077895,0.075789,0.077895,0.081053
0.030526,0.077895,0.075789,0.077895,0.081053
0.029474,0.076842,0.073684,0.075789,0.080000
0.029474,0.076842,0.073684,0.074737,0.078947
0.029474,0.076842,0.073684,0.074737,0.078947
0.027368,0.075789,0.072632,0.073684,0.078947
0.027368,0.075789,0.072632,0.073684,0.078947
0.027368,0.076842,0.072632,0.073684,0.077895
0.027368,0.076842,0.072632,0.073684,0.077895
0.027368,0.075789,0.072632,0.072632,0.077895
0.027368,0.075789,0.072632,0.072632,0.077895
0.026316,0.076842,0.072632,0.071579,0.078947
0.026316,0.076842,0.072632,0.071579,0.078947
0.026316,0.076842,0.072632,0.071579,0.080000
0.025263,0.076842,0.073684,0.071579,0.081053
0.024211,0.075789,0.073684,0.070526,0.081053
0.024211,0.075789,0.073684,0.070526,0.081053
0.024211,0.075789,0.073684,0.069474,0.081053
0.024211,0.075789,0.073684,0.069474,0.081053
0.025263,0.077895,0.073684,0.069474,0.081053
0.025263,0.077895,0.073684,0.069474,0.081053
0.023158,0.074737,0.074737,0.069474,0.081053
0.024211,0.074737,0.074737,0.068421,0.082105
0.024211,0.074737,0.074737,0.068421,0.082105
0.024211,0.074737,0.074737,0.068421,0.082105
0.024211,0.074737,0.074737,0.068421,0.082105
0.023158,0.073684,0.074737,0.068421,0.083158
0.023158,0.073684,0.074737,0.068421,0.083158
0.023158,0.073684,0.074737,0.068421,0.084211
0.023158,0.073684,0.074737,0.068421,0.084211
0.022105,0.072632,0.075789,0.069474,0.086316
0.021053,0.072632,0.076842,0.069474,0.089474
0.021053,0.072632,0.076842,0.069474,0.089474
0.022105,0.072632,0.076842,0.070526,0.091579
0.022105,0.072632,0.076842,0.070526,0.091579
0.022105,0.072632,0.077895,0.071579,0.095789
0.022105,0.072632,0.077895,0.071579,0.095789
0.021053,0.071579,0.077895,0.073684,0.104211
0.021053,0.071579,0.077895,0.073684,0.104211
0.022105,0.071579,0.081053,0.078947,0.118947
0.020000,0.072632,0.082105,0.091579,0.150526
0.020000,0.072632,0.082105,0.091579,0.150526
0.020000,0.072632,0.085263,0.135789,0.216842
0.020000,0.072632,0.085263,0.135789,0.216842
0.020000,0.072632,0.088421,0.237895,0.340000
0.020000,0.072632,0.088421,0.237895,0.340000
0.020000,0.072632,0.090526,0.393684,0.480000
0.020000,0.072632,0.090526,0.393684,0.480000
0.020000,0.072632,0.092632,0.607368,0.651579
0.020000,0.072632,0.092632,0.607368,0.651579
0.018947,0.072632,0.096842,0.784211,0.803158
0.020000,0.072632,0.101053,0.870526,0.880000
0.020000,0.072632,0.101053,0.870526,0.880000
0.020000,0.073684,0.105263,0.921053,0.927368
0.020000,0.073684,0.105263,0.921053,0.927368
0.017895,0.073684,0.109474,0.948421,0.951579
0.017895,0.073684,0.109474,0.948421,0.951579
0.018947,0.074737,0.115789,0.962105,0.963158
0.018947,0.076842,0.122105,0.968421,0.970526
0.018947,0.076842,0.122105,0.968421,0.970526
0.017895,0.074737,0.130526,0.975789,0.974737
0.017895,0.074737,0.130526,0.975789,0.974737
0.018947,0.075789,0.143158,0.980000,0.978947
0.018947,0.075789,0.143158,0.980000,0.978947
0.018947,0.076842,0.162105,0.984211,0.981053
0.018947,0.076842,0.162105,0.984211,0.981053
0.018947,0.074737,0.186316,0.989474,0.981053
0.020000,0.077895,0.212632,0.990526,0.980000
0.020000,0.077895,0.212632,0.990526,0.980000
0.020000,0.080000,0.248421,0.994737,0.975789
0.020000,0.080000,0.248421,0.994737,0.975789
0.020000,0.080000,0.296842,0.995789,0.971579
0.020000,0.080000,0.296842,0.995789,0.971579
0.018947,0.081053,0.355789,0.997895,0.970526
0.018947,0.081053,0.355789,0.997895,0.970526
0.018947,0.082105,0.423158,0.998947,0.969474
0.020000,0.083158,0.490526,0.997895,0.969474
0.020000,0.083158,0.490526,0.997895,0.969474
0.018947,0.084211,0.541053,1.000000,0.970526
0.018947,0.084211,0.541053,1.000000,0.970526
0.020000,0.084211,0.565263,1.000000,0.968421
0.020000,0.084211,0.565263,1.000000,0.968421
0.017895,0.084211,0.561053,0.997895,0.967368
0.017895,0.084211,0.561053,0.997895,0.967368
0.018947,0.086316,0.546316,0.994737,0.963158
0.018947,0.085263,0.548421,0.994737,0.963158
0.017895,0.086316,0.557895,0.993684,0.961053
0.015789,0.088421,0.552632,0.991579,0.961053
0.015789,0.088421,0.552632,0.991579,0.961053
0.017895,0.087368,0.540000,0.989474,0.958947
0.017895,0.087368,0.540000,0.989474,0.958947
0.017895,0.088421,0.531579,0.988421,0.956842
0.017895,0.088421,0.531579,0.988421,0.956842
0.018947,0.089474,0.528421,0.987368,0.955790
0.013684,0.090526,0.523158,0.986316,0.953684
0.013684,0.090526,0.523158,0.986316,0.953684
0.017895,0.090526,0.511579,0.984211,0.953684
0.017895,0.090526,0.511579,0.984211,0.953684
0.017895,0.091579,0.490526,0.978947,0.948421
0.017895,0.091579,0.490526,0.978947,0.948421
0.016842,0.091579,0.461053,0.971579,0.932632
0.016842,0.091579,0.461053,0.971579,0.932632
0.017895,0.091579,0.422105,0.956842,0.908421
0.017895,0.091579,0.373684,0.932632,0.852632
0.017895,0.091579,0.373684,0.932632,0.852632
0.016842,0.091579,0.337895,0.884211,0.754737
0.016842,0.091579,0.337895,0.884211,0.754737
0.016842,0.091579,0.308421,0.811579,0.646316
0.016842,0.091579,0.308421,0.811579,0.646316
0.016842,0.089474,0.277895,0.702105,0.568421
0.016842,0.089474,0.277895,0.702105,0.568421
0.015789,0.087368,0.242105,0.533684,0.473684
0.015789,0.084211,0.211579,0.400000,0.403158
0.015789,0.084211,0.211579,0.400000,0.403158
0.015789,0.081053,0.186316,0.321053,0.351579
0.015789,0.081053,0.186316,0.321053,0.351579
0.015789,0.078947,0.167368,0.266316,0.312632
0.015789,0.078947,0.167368,0.266316,0.312632
0.015789,0.076842,0.150526,0.229474,0.274737
0.015789,0.076842,0.143158,0.216842,0.260000
0.014737,0.073684,0.131579,0.195789,0.233684
0.014737,0.073684,0.131579,0.195789,0.233684
0.013684,0.070526,0.122105,0.182105,0.213684
0.013684,0.070526,0.122105,0.182105,0.213684
0.014737,0.068421,0.113684,0.170526,0.197895
0.014737,0.068421,0.113684,0.170526,0.197895
0.014737,0.065263,0.106316,0.158947,0.184211
0.014737,0.065263,0.106316,0.158947,0.184211
0.013684,0.063158,0.100000,0.150526,0.169474
0.014737,0.061053,0.093684,0.144211,0.155789
0.014737,0.061053,0.093684,0.144211,0.155789
0.013684,0.057895,0.088421,0.138947,0.145263
0.013684,0.057895,0.088421,0.138947,0.145263
0.012632,0.056842,0.084211,0.133684,0.135789
0.012632,0.056842,0.084211,0.133684,0.135789
0.012632,0.054737,0.081053,0.127368,0.127368
0.012632,0.054737,0.081053,0.127368,0.127368
0.012632,0.053684,0.077895,0.120000,0.120000
0.012632,0.051579,0.074737,0.111579,0.114737
0.012632,0.051579,0.074737,0.111579,0.114737
0.011579,0.050526,0.073684,0.107368,0.111579
0.011579,0.050526,0.073684,0.107368,0.111579
0.013684,0.050526,0.071579,0.104211,0.108421
0.013684,0.050526,0.071579,0.104211,0.108421
0.011579,0.049474,0.070526,0.101053,0.105263
0.011579,0.049474,0.070526,0.101053,0.105263
0.015789,0.048421,0.069474,0.097895,0.103158
0.011579,0.047368,0.068421,0.096842,0.101053
0.011579,0.047368,0.068421,0.096842,0.101053
0.010526,0.046316,0.067368,0.094737,0.100000
0.010526,0.046316,0.067368,0.094737,0.100000
0.011579,0.046316,0.066316,0.093684,0.097895
0.012632,0.045263,0.066316,0.092632,0.096842
0.012632,0.045263,0.066316,0.092632,0.096842
0.011579,0.044211,0.065263,0.091579,0.095789
0.011579,0.044211,0.065263,0.091579,0.095789
0.011579,0.044211,0.064211,0.090526,0.094737
0.011579,0.044211,0.064211,0.090526,0.094737
0.011579,0.044211,0.064211,0.090526,0.094737
0.011579,0.043158,0.064211,0.089474,0.096842
0.011579,0.043158,0.064211,0.089474,0.096842
0.011579,0.042105,0.063158,0.088421,0.094737
0.011579,0.042105,0.063158,0.088421,0.094737
0.011579,0.042105,0.063158,0.088421,0.094737
0.011579,0.042105,0.063158,0.088421,0.094737
0.010526,0.042105,0.064211,0.088421,0.094737
0.011579,0.042105,0.064211,0.088421,0.095789
0.011579,0.042105,0.064211,0.088421,0.095789
0.011579,0.042105,0.065263,0.090526,0.097895
0.011579,0.042105,0.065263,0.090526,0.097895
0.011579,0.040000,0.066316,0.094737,0.097895
0.011579,0.040000,0.066316,0.094737,0.097895
0.011579,0.041053,0.068421,0.118947,0.102105
0.011579,0.041053,0.068421,0.118947,0.102105
0.011579,0.044211,0.072632,0.256842,0.106316
0.011579,0.041053,0.084211,0.491579,0.111579
0.011579,0.041053,0.084211,0.491579,0.111579
0.011579,0.041053,0.118947,0.727368,0.126316
0.011579,0.041053,0.118947,0.727368,0.126316
0.009474,0.040000,0.194737,0.865263,0.164211
0.009474,0.040000,0.194737,0.865263,0.164211
0.010526,0.040000,0.300000,0.928421,0.243158
0.010526,0.040000,0.300000,0.928421,0.243158
0.010526,0.040000,0.420000,0.963158,0.367368
0.010526,0.040000,0.420000,0.963158,0.367368
0.010526,0.040000,0.560000,0.991579,0.498947
0.010526,0.040000,0.560000,0.991579,0.498947
0.009474,0.040000,0.686316,0.996842,0.598947
0.009474,0.040000,0.686316,0.996842,0.598947
0.009474,0.040000,0.774737,1.000000,0.678947
0.011579,0.042105,0.844211,1.000000,0.742105
0.011579,0.042105,0.844211,1.000000,0.742105
0.009474,0.040000,0.889474,1.000000,0.788421
0.009474,0.040000,0.925263,1.000000,0.828421
0.009474,0.040000,0.925263,1.000000,0.828421
0.009474,0.040000,0.951579,1.000000,0.856842
0.009474,0.040000,0.951579,1.000000,0.856842
0.010526,0.040000,0.971579,1.000000,0.872632
0.010526,0.040000,0.971579,1.000000,0.872632
0.010526,0.040000,0.980000,1.000000,0.876842
0.010526,0.040000,0.980000,1.000000,0.876842
0.008421,0.040000,0.985263,1.000000,0.873684
0.010526,0.038947,0.989474,1.000000,0.862105
0.010526,0.038947,0.989474,1.000000,0.862105
0.010526,0.040000,0.994737,1.000000,0.851579
0.010526,0.040000,0.994737,1.000000,0.851579
0.011579,0.040000,0.995789,1.000000,0.844211
0.011579,0.040000,0.995789,1.000000,0.844211
0.010526,0.040000,0.996842,1.000000,0.834737
0.010526,0.040000,0.996842,1.000000,0.834737
0.010526,0.038947,0.992632,1.000000,0.827368
0.011579,0.038947,0.991579,1.000000,0.822105
0.011579,0.038947,0.991579,1.000000,0.822105
0.009474,0.040000,0.990526,1.000000,0.817895
0.009474,0.040000,0.990526,1.000000,0.817895
0.011579,0.040000,0.992632,1.000000,0.813684
0.011579,0.040000,0.992632,1.000000,0.813684
0.011579,0.041053,0.990526,0.997895,0.810526
0.011579,0.041053,0.990526,0.997895,0.810526
0.010526,0.038947,0.987368,0.995789,0.807368
0.010526,0.041053,0.983158,0.994737,0.803158
0.010526,0.041053,0.983158,0.994737,0.803158
0.010526,0.041053,0.978947,0.994737,0.800000
0.010526,0.041053,0.978947,0.994737,0.800000
0.010526,0.041053,0.973684,0.993684,0.796842
0.008421,0.042105,0.967368,0.990526,0.788421
0.008421,0.042105,0.967368,0.990526,0.788421
0.009474,0.042105,0.957895,0.985263,0.775789
0.009474,0.042105,0.957895,0.985263,0.775789
0.009474,0.042105,0.940000,0.975789,0.751579
0.010526,0.042105,0.913684,0.949474,0.688421
0.010526,0.042105,0.913684,0.949474,0.688421
0.009474,0.042105,0.872632,0.889474,0.587368
0.009474,0.042105,0.872632,0.889474,0.587368
0.009474,0.041053,0.792632,0.761053,0.483158
0.009474,0.041053,0.792632,0.761053,0.483158
0.010526,0.041053,0.671579,0.554737,0.406316
0.010526,0.041053,0.671579,0.554737,0.406316
0.009474,0.040000,0.535789,0.400000,0.354737
0.009474,0.040000,0.535789,0.400000,0.354737
0.009474,0.038947,0.428421,0.312632,0.312632
0.009474,0.038947,0.428421,0.312632,0.312632
0.009474,0.037895,0.345263,0.261053,0.272632
0.009474,0.037895,0.345263,0.261053,0.272632
0.008421,0.036842,0.284211,0.227368,0.240000
0.008421,0.036842,0.284211,0.227368,0.240000
0.009474,0.036842,0.236842,0.201053,0.213684
0.009474,0.036842,0.236842,0.201053,0.213684
0.008421,0.035789,0.204211,0.182105,0.193684
0.008421,0.034737,0.183158,0.170526,0.178947
0.008421,0.034737,0.183158,0.170526,0.178947
0.008421,0.033684,0.164211,0.164211,0.166316
0.008421,0.033684,0.164211,0.164211,0.166316
0.007368,0.032632,0.149474,0.154737,0.155789
0.007368,0.032632,0.149474,0.154737,0.155789
0.007368,0.030526,0.137895,0.150526,0.145263
0.007368,0.030526,0.137895,0.150526,0.145263
0.007368,0.030526,0.129474,0.145263,0.136842
0.006316,0.028421,0.123158,0.142105,0.131579
0.006316,0.027368,0.116842,0.138947,0.126316
0.006316,0.027368,0.116842,0.138947,0.126316
0.007368,0.026316,0.111579,0.134737,0.122105
0.007368,0.026316,0.111579,0.134737,0.122105
0.007368,0.026316,0.108421,0.131579,0.117895
0.007368,0.026316,0.108421,0.131579,0.117895
0.006316,0.025263,0.105263,0.130526,0.114737
0.006316,0.024211,0.102105,0.128421,0.112632
0.006316,0.024211,0.102105,0.128421,0.112632
0.005263,0.024211,0.100000,0.127368,0.111579
0.005263,0.024211,0.100000,0.127368,0.111579
0.005263,0.024211,0.097895,0.125263,0.109474
0.005263,0.024211,0.097895,0.125263,0.109474
0.008421,0.023158,0.096842,0.124211,0.108421
0.008421,0.023158,0.096842,0.124211,0.108421
0.006316,0.023158,0.095789,0.123158,0.107368
0.006316,0.023158,0.095789,0.123158,0.107368
0.005263,0.023158,0.095789,0.122105,0.106316
0.005263,0.023158,0.095789,0.122105,0.106316
0.006316,0.022105,0.096842,0.121053,0.106316
0.006316,0.022105,0.096842,0.121053,0.106316
0.006316,0.022105,0.101053,0.120000,0.105263
0.006316,0.022105,0.101053,0.120000,0.105263
0.006316,0.023158,0.111579,0.122105,0.105263
0.006316,0.023158,0.111579,0.122105,0.105263
0.007368,0.023158,0.143158,0.118947,0.104211
0.007368,0.023158,0.209474,0.118947,0.104211
0.007368,0.023158,0.209474,0.118947,0.104211
0.006316,0.023158,0.303158,0.120000,0.105263
0.006316,0.023158,0.303158,0.120000,0.105263
0.006316,0.022105,0.353684,0.122105,0.105263
0.006316,0.022105,0.353684,0.122105,0.105263
0.007368,0.024211,0.454737,0.135789,0.105263
0.007368,0.024211,0.454737,0.135789,0.105263
0.007368,0.024211,0.572632,0.210526,0.106316
0.006316,0.024211,0.682105,0.382105,0.106316
0.007368,0.025263,0.762105,0.580000,0.107368
0.007368,0.025263,0.762105,0.580000,0.107368
0.006316,0.025263,0.814737,0.718947,0.109474
0.006316,0.025263,0.814737,0.718947,0.109474
0.006316,0.025263,0.852632,0.801053,0.111579
0.006316,0.025263,0.852632,0.801053,0.111579
0.006316,0.026316,0.884211,0.852632,0.114737
0.006316,0.026316,0.884211,0.852632,0.114737
0.007368,0.028421,0.916842,0.898947,0.120000
0.006316,0.030526,0.938947,0.928421,0.129474
0.006316,0.030526,0.938947,0.928421,0.129474
0.006316,0.034737,0.952632,0.938947,0.141053
0.006316,0.034737,0.952632,0.938947,0.141053
0.006316,0.040000,0.963158,0.949474,0.158947
0.006316,0.040000,0.963158,0.949474,0.158947
0.006316,0.046316,0.976842,0.963158,0.180000
0.006316,0.046316,0.976842,0.963158,0.180000
0.006316,0.058947,0.988421,0.975789,0.215789
0.006316,0.058947,0.988421,0.975789,0.215789
0.006316,0.082105,0.996842,0.981053,0.263158
0.006316,0.082105,0.996842,0.981053,0.263158
0.006316,0.122105,1.000000,0.986316,0.317895
0.006316,0.122105,1.000000,0.986316,0.317895
0.006316,0.169474,1.000000,0.990526,0.368421
0.006316,0.169474,1.000000,0.990526,0.368421
0.005263,0.220000,1.000000,0.994737,0.414737
0.005263,0.220000,1.000000,0.994737,0.414737
0.006316,0.284211,1.000000,0.997895,0.467368
0.005263,0.360000,1.000000,1.000000,0.514737
0.005263,0.360000,1.000000,1.000000,0.514737
0.006316,0.425263,1.000000,0.997895,0.549474
0.006316,0.425263,1.000000,0.997895,0.549474
0.006316,0.477895,1.000000,0.997895,0.573684
0.006316,0.477895,1.000000,0.997895,0.573684
0.004211,0.531579,1.000000,0.998947,0.597895
0.005263,0.571579,1.000000,0.998947,0.617895
0.005263,0.571579,1.000000,0.998947,0.617895
0.005263,0.591579,1.000000,0.997895,0.626316
0.004211,0.593684,1.000000,0.994737,0.626316
0.004211,0.593684,1.000000,0.994737,0.626316
0.005263,0.591579,1.000000,0.991579,0.624211
0.005263,0.591579,1.000000,0.991579,0.624211
0.005263,0.598947,1.000000,0.989474,0.625263
0.005263,0.598947,1.000000,0.989474,0.625263
0.004211,0.601053,1.000000,0.988421,0.624211
0.005263,0.591579,1.000000,0.985263,0.611579
0.005263,0.591579,1.000000,0.985263,0.611579
0.005263,0.564211,0.996842,0.981053,0.587368
0.005263,0.564211,0.996842,0.981053,0.587368
0.004211,0.530526,0.992632,0.974737,0.556842
0.004211,0.530526,0.992632,0.974737,0.556842
0.004211,0.498947,0.987368,0.970526,0.536842
0.004211,0.498947,0.987368,0.970526,0.536842
0.005263,0.469474,0.983158,0.965263,0.515789
0.005263,0.469474,0.983158,0.965263,0.515789
0.005263,0.433684,0.976842,0.956842,0.486316
0.005263,0.374737,0.964211,0.941053,0.436842
0.005263,0.374737,0.964211,0.941053,0.436842
0.008421,0.308421,0.941053,0.909474,0.384211
0.008421,0.308421,0.941053,0.909474,0.384211
0.004211,0.224211,0.840000,0.784211,0.312632
0.005263,0.197895,0.736842,0.649474,0.285263
0.005263,0.197895,0.736842,0.649474,0.285263
0.004211,0.177895,0.598947,0.483158,0.261053
0.004211,0.177895,0.598947,0.483158,0.261053
0.005263,0.161053,0.468421,0.362105,0.238947
0.005263,0.161053,0.468421,0.362105,0.238947
0.004211,0.145263,0.367368,0.290526,0.218947
0.004211,0.145263,0.367368,0.290526,0.218947
0.005263,0.131579,0.294737,0.247368,0.201053
0.004211,0.121053,0.248421,0.221053,0.185263
0.005263,0.112632,0.217895,0.200000,0.172632
0.005263,0.112632,0.217895,0.200000,0.172632
0.004211,0.104211,0.195789,0.185263,0.162105
0.004211,0.104211,0.195789,0.185263,0.162105
0.004211,0.097895,0.180000,0.174737,0.153684
0.004211,0.097895,0.180000,0.174737,0.153684
0.003158,0.093684,0.166316,0.166316,0.145263
0.003158,0.093684,0.166316,0.166316,0.145263
0.003158,0.086316,0.155789,0.158947,0.137895
0.002105,0.083158,0.147368,0.153684,0.131579
0.002105,0.083158,0.147368,0.153684,0.131579
0.004211,0.080000,0.143158,0.150526,0.128421
0.004211,0.080000,0.143158,0.150526,0.128421
0.003158,0.077895,0.137895,0.146316,0.125263
0.003158,0.077895,0.137895,0.146316,0.125263
0.002105,0.075789,0.135789,0.144211,0.122105
0.002105,0.075789,0.135789,0.144211,0.122105
0.004211,0.073684,0.132632,0.141053,0.118947
0.003158,0.072632,0.130526,0.138947,0.117895
0.003158,0.072632,0.130526,0.138947,0.117895
0.003158,0.071579,0.128421,0.137895,0.114737
0.003158,0.071579,0.128421,0.137895,0.114737
0.003158,0.069474,0.126316,0.135789,0.114737
0.003158,0.069474,0.126316,0.135789,0.114737
0.003158,0.069474,0.124211,0.133684,0.112632
0.003158,0.069474,0.124211,0.133684,0.112632
0.002105,0.067368,0.123158,0.132632,0.111579
0.002105,0.067368,0.122105,0.131579,0.110526
0.002105,0.067368,0.122105,0.131579,0.110526
0.003158,0.066316,0.121053,0.130526,0.109474
0.003158,0.066316,0.121053,0.130526,0.109474
0.002105,0.066316,0.118947,0.129474,0.108421
0.002105,0.066316,0.118947,0.129474,0.108421
0.002105,0.066316,0.117895,0.127368,0.108421
0.003158,0.068421,0.117895,0.125263,0.107368
0.003158,0.068421,0.117895,0.125263,0.107368
0.003158,0.070526,0.118947,0.126316,0.107368
0.003158,0.070526,0.118947,0.126316,0.107368
0.003158,0.081053,0.118947,0.125263,0.107368
0.003158,0.081053,0.118947,0.125263,0.107368
0.002105,0.110526,0.122105,0.125263,0.107368
0.002105,0.110526,0.122105,0.125263,0.107368
0.000000,0.178947,0.129474,0.124211,0.107368
0.000000,0.178947,0.129474,0.124211,0.107368
0.002105,0.305263,0.143158,0.124211,0.108421
0.002105,0.430526,0.161053,0.124211,0.107368
0.002105,0.430526,0.161053,0.124211,0.107368
0.003158,0.527368,0.177895,0.125263,0.108421
0.003158,0.527368,0.177895,0.125263,0.108421
0.002105,0.643158,0.196842,0.126316,0.109474
0.002105,0.643158,0.196842,0.126316,0.109474
0.002105,0.766316,0.224211,0.130526,0.110526
0.002105,0.766316,0.224211,0.130526,0.110526
0.003158,0.852632,0.261053,0.140000,0.110526
0.002105,0.898947,0.298947,0.158947,0.111579
0.002105,0.898947,0.298947,0.158947,0.111579
0.002105,0.927368,0.328421,0.182105,0.112632
0.002105,0.927368,0.328421,0.182105,0.112632
0.003158,0.950526,0.361053,0.213684,0.112632
0.003158,0.950526,0.361053,0.213684,0.112632
0.002105,0.969474,0.417895,0.281053,0.114737
0.002105,0.969474,0.417895,0.281053,0.114737
0.001053,0.983158,0.487368,0.384211,0.116842
0.001053,0.990526,0.538947,0.467368,0.120000
0.001053,0.990526,0.538947,0.467368,0.120000
0.002105,0.996842,0.576842,0.531579,0.124211
0.002105,0.996842,0.576842,0.531579,0.124211
0.002105,1.000000,0.610526,0.590526,0.126316
0.002105,1.000000,0.610526,0.590526,0.126316
0.002105,1.000000,0.646316,0.651579,0.133684
0.002105,1.000000,0.687368,0.711579,0.144211
0.002105,1.000000,0.687368,0.711579,0.144211
0.003158,1.000000,0.729474,0.771579,0.164211
0.003158,1.000000,0.729474,0.771579,0.164211
0.004211,1.000000,0.754737,0.805263,0.187368
0.004211,1.000000,0.754737,0.805263,0.187368
0.004211,1.000000,0.768421,0.821053,0.204211
0.004211,1.000000,0.768421,0.821053,0.204211
0.005263,1.000000,0.776842,0.831579,0.218947
0.005263,1.000000,0.776842,0.831579,0.218947
0.004211,1.000000,0.781053,0.841053,0.233684
0.004211,1.000000,0.781053,0.841053,0.233684
0.003158,0.997895,0.784211,0.848421,0.247368
0.004211,0.996842,0.782105,0.846316,0.252632
0.004211,0.996842,0.782105,0.846316,0.252632
0.004211,0.994737,0.772632,0.838947,0.255789
0.004211,0.994737,0.772632,0.838947,0.255789
0.003158,0.992632,0.755790,0.823158,0.253684
0.003158,0.992632,0.755790,0.823158,0.253684
0.002105,0.990526,0.735789,0.800000,0.248421
0.002105,0.990526,0.735789,0.800000,0.248421
0.003158,0.985263,0.707368,0.771579,0.238947
0.003158,0.977895,0.667368,0.725263,0.226316
0.003158,0.977895,0.667368,0.725263,0.226316
0.002105,0.961053,0.602105,0.642105,0.214737
0.002105,0.961053,0.602105,0.642105,0.214737
0.001053,0.927368,0.516842,0.522105,0.203158
0.001053,0.927368,0.516842,0.522105,0.203158
0.002105,0.856842,0.437895,0.424211,0.195789
0.002105,0.856842,0.437895,0.424211,0.195789
0.001053,0.745263,0.377895,0.360000,0.188421
0.000000,0.576842,0.324211,0.304211,0.180000
0.000000,0.576842,0.324211,0.304211,0.180000
0.000000,0.426316,0.284211,0.263158,0.172632
0.000000,0.330526,0.253684,0.232632,0.164211
0.000000,0.330526,0.253684,0.232632,0.164211
0.000000,0.269474,0.227368,0.208421,0.155789
0.000000,0.269474,0.227368,0.208421,0.155789
0.000000,0.229474,0.203158,0.189474,0.148421
0.000000,0.201053,0.182105,0.172632,0.141053
0.000000,0.201053,0.182105,0.172632,0.141053
0.000000,0.177895,0.164211,0.160000,0.133684
0.000000,0.177895,0.164211,0.160000,0.133684
0.000000,0.161053,0.150526,0.149474,0.127368
0.000000,0.161053,0.150526,0.149474,0.127368
0.000000,0.148421,0.140000,0.141053,0.122105
0.000000,0.148421,0.140000,0.141053,0.122105
0.000000,0.138947,0.132632,0.134737,0.116842
0.000000,0.131579,0.127368,0.129474,0.113684
0.000000,0.131579,0.127368,0.129474,0.113684
0.000000,0.126316,0.122105,0.126316,0.109474
0.000000,0.126316,0.122105,0.126316,0.109474
0.000000,0.121053,0.118947,0.123158,0.107368
0.000000,0.121053,0.118947,0.123158,0.107368
0.000000,0.117895,0.115789,0.120000,0.104211
0.000000,0.117895,0.115789,0.120000,0.104211
0.000000,0.115789,0.112632,0.117895,0.103158
0.000000,0.112632,0.111579,0.115789,0.101053
0.000000,0.112632,0.111579,0.115789,0.101053
0.000000,0.110526,0.110526,0.113684,0.100000
0.000000,0.110526,0.110526,0.113684,0.100000
0.000000,0.109474,0.108421,0.112632,0.097895
0.000000,0.109474,0.108421,0.112632,0.097895
0.000000,0.106316,0.107368,0.111579,0.097895
0.000000,0.106316,0.107368,0.111579,0.097895
0.000000,0.105263,0.106316,0.109474,0.095789
0.000000,0.104211,0.105263,0.108421,0.095789
0.000000,0.104211,0.105263,0.108421,0.095789
0.000000,0.102105,0.103158,0.107368,0.094737
0.000000,0.102105,0.103158,0.107368,0.094737
0.000000,0.101053,0.103158,0.106316,0.093684
0.000000,0.100000,0.102105,0.105263,0.092632
0.000000,0.100000,0.102105,0.105263,0.092632
0.000000,0.097895,0.101053,0.104211,0.091579
0.000000,0.097895,0.101053,0.104211,0.091579
0.002105,0.097895,0.101053,0.104211,0.091579
0.006316,0.096842,0.100000,0.104211,0.090526
0.006316,0.096842,0.100000,0.104211,0.090526
0.010526,0.095789,0.100000,0.102105,0.090526
0.010526,0.095789,0.100000,0.102105,0.090526
0.020000,0.095789,0.100000,0.101053,0.089474
0.020000,0.095789,0.100000,0.101053,0.089474
0.045263,0.093684,0.098947,0.101053,0.090526
0.045263,0.093684,0.098947,0.101053,0.090526
0.124211,0.092632,0.098947,0.100000,0.089474
0.270526,0.092632,0.097895,0.098947,0.089474
0.270526,0.092632,0.097895,0.098947,0.089474
0.471579,0.091579,0.097895,0.097895,0.088421
0.471579,0.091579,0.097895,0.097895,0.088421
0.684211,0.090526,0.097895,0.097895,0.088421
0.684211,0.090526,0.097895,0.097895,0.088421
0.807368,0.090526,0.096842,0.096842,0.088421
0.807368,0.090526,0.096842,0.096842,0.088421
0.868421,0.088421,0.096842,0.096842,0.089474
0.925263,0.087368,0.095789,0.095789,0.087368
0.925263,0.087368,0.095789,0.095789,0.087368
0.974737,0.087368,0.094737,0.094737,0.087368
0.974737,0.087368,0.094737,0.094737,0.087368
1.000000,0.086316,0.093684,0.094737,0.087368
1.000000,0.086316,0.093684,0.094737,0.087368
1.000000,0.086316,0.095789,0.094737,0.087368
1.000000,0.086316,0.095789,0.094737,0.087368
1.000000,0.085263,0.095789,0.094737,0.087368
1.000000,0.085263,0.095789,0.093684,0.087368
1.000000,0.085263,0.095789,0.093684,0.087368
1.000000,0.084211,0.094737,0.092632,0.087368
1.000000,0.084211,0.094737,0.092632,0.086316
1.000000,0.084211,0.094737,0.092632,0.086316
1.000000,0.084211,0.094737,0.092632,0.087368
1.000000,0.084211,0.094737,0.092632,0.087368
1.000000,0.084211,0.093684,0.092632,0.086316
1.000000,0.083158,0.093684,0.092632,0.086316
1.000000,0.083158,0.093684,0.092632,0.086316
1.000000,0.082105,0.093684,0.091579,0.086316
1.000000,0.082105,0.093684,0.091579,0.086316
1.000000,0.082105,0.093684,0.090526,0.086316
1.000000,0.082105,0.093684,0.090526,0.086316
1.000000,0.081053,0.093684,0.090526,0.086316
1.000000,0.081053,0.093684,0.090526,0.086316
1.000000,0.082105,0.092632,0.090526,0.086316
1.000000,0.081053,0.092632,0.090526,0.086316
1.000000,0.081053,0.092632,0.090526,0.086316
1.000000,0.080000,0.093684,0.089474,0.086316
1.000000,0.080000,0.093684,0.089474,0.086316
1.000000,0.080000,0.092632,0.089474,0.085263
1.000000,0.080000,0.092632,0.089474,0.085263
1.000000,0.080000,0.093684,0.089474,0.085263
1.000000,0.080000,0.093684,0.089474,0.085263
1.000000,0.080000,0.093684,0.089474,0.085263
1.000000,0.078947,0.093684,0.089474,0.085263
1.000000,0.078947,0.093684,0.089474,0.085263
1.000000,0.077895,0.093684,0.088421,0.085263
1.000000,0.077895,0.093684,0.088421,0.085263
1.000000,0.076842,0.093684,0.088421,0.084211
1.000000,0.076842,0.093684,0.088421,0.084211
0.990526,0.076842,0.093684,0.088421,0.084211
0.990526,0.076842,0.093684,0.088421,0.084211
0.986316,0.076842,0.093684,0.087368,0.084211
0.972632,0.075789,0.093684,0.088421,0.083158
0.937895,0.074737,0.093684,0.087368,0.083158
0.937895,0.074737,0.093684,0.087368,0.083158
0.857895,0.073684,0.093684,0.088421,0.082105
0.857895,0.073684,0.093684,0.088421,0.082105
0.726316,0.072632,0.092632,0.086316,0.080000
0.726316,0.072632,0.092632,0.086316,0.080000
0.541053,0.071579,0.091579,0.085263,0.077895
0.541053,0.071579,0.091579,0.085263,0.077895
0.336842,0.069474,0.089474,0.084211,0.076842
0.213684,0.068421,0.089474,0.083158,0.075789
0.213684,0.068421,0.089474,0.083158,0.075789
0.153684,0.068421,0.087368,0.083158,0.074737
0.153684,0.068421,0.087368,0.083158,0.074737
0.125263,0.066316,0.088421,0.081053,0.073684
0.125263,0.066316,0.088421,0.081053,0.073684
0.109474,0.066316,0.083158,0.080000,0.071579
0.109474,0.066316,0.083158,0.080000,0.071579
0.095789,0.065263,0.082105,0.078947,0.070526
0.095789,0.065263,0.082105,0.078947,0.070526
0.084211,0.064211,0.080000,0.077895,0.069474
0.084211,0.064211,0.080000,0.077895,0.069474
0.073684,0.063158,0.078947,0.076842,0.067368
0.073684,0.063158,0.078947,0.076842,0.067368
0.067368,0.063158,0.076842,0.075789,0.065263
0.067368,0.063158,0.076842,0.075789,0.065263
0.058947,0.061053,0.074737,0.074737,0.065263
0.058947,0.061053,0.074737,0.074737,0.065263
