3.313234,10.613708,8.100172,2.460909,0.337823,2.751165,7.091504,31.543516
3.319473,10.631744,8.073329,2.416287,0.325303,2.749021,7.066064,31.371553
3.315291,10.522381,8.085672,2.375234,0.313783,2.756570,7.052077,31.177740
3.293352,10.155508,8.094831,2.268359,0.284461,2.713486,6.891791,30.428843
3.289748,10.115057,7.969820,2.208841,0.268613,2.672841,6.771928,29.975555
3.287923,10.103976,7.813085,2.205310,0.255197,2.626020,6.640448,29.603022
3.314647,10.065151,7.680410,2.184633,0.243841,2.618491,6.535583,29.485350
3.331421,10.134102,7.503088,2.120315,0.235931,2.604267,6.362371,29.252184
3.306332,10.190019,7.386796,2.128524,0.238937,2.567818,6.211374,28.859030
3.276292,10.226413,7.315638,2.114170,0.240262,2.547104,6.138272,28.511959
3.229160,10.243755,7.243001,2.139219,0.242604,2.509207,6.006639,27.858669
3.205017,10.357774,7.122750,2.177977,0.244585,2.475835,5.909217,27.355778
3.186464,10.457435,6.925400,2.199462,0.246263,2.448725,5.810123,27.408941
3.178284,10.516319,6.838395,2.208935,0.247003,2.435159,5.760555,27.474287
3.159345,10.580209,6.735969,2.213076,0.247683,2.422677,5.706282,27.604380
3.125792,10.778832,6.512217,2.236033,0.248885,2.384088,5.639147,27.963017
3.127577,11.019323,6.217086,2.296454,0.250351,2.305277,5.619464,28.184933
3.132644,11.079117,6.087689,2.299015,0.273768,2.314935,5.604777,28.324022
3.140508,11.172178,5.968638,2.301504,0.295312,2.334818,5.600129,28.465042
3.150474,11.233137,5.859107,2.325444,0.315133,2.332372,5.592749,28.554083
3.175182,11.396060,5.627603,2.367735,0.350148,2.314219,5.534167,28.624994
3.180246,11.462848,5.507326,2.386380,0.365586,2.302136,5.499372,28.517641
3.150928,11.749235,5.189308,2.432442,0.404878,2.313427,5.415259,28.185741
3.135409,11.890497,5.086373,2.445409,0.415939,2.327617,5.410310,27.951687
3.116858,12.046041,4.996173,2.457340,0.426116,2.354623,5.406163,27.674673
3.094323,12.401664,4.879829,2.489101,0.452019,2.404254,5.400168,27.359385
3.122057,12.601249,4.680007,2.545288,0.466020,2.410502,5.380545,27.238586
3.161379,12.920715,4.436290,2.635975,0.455275,2.412141,5.321338,27.374334
3.184937,13.029472,4.389248,2.679607,0.447816,2.451812,5.322044,27.422836
3.208420,13.184742,4.345968,2.719750,0.440954,2.488312,5.316579,27.454895
3.265598,13.599143,4.235805,2.839360,0.423488,2.611111,5.292878,27.548336
3.282389,13.724666,4.197798,2.878671,0.418571,2.649918,5.283785,27.526501
3.301924,13.925156,4.135142,2.948617,0.424363,2.733870,5.236551,27.498604
3.302851,14.251060,3.845807,3.034595,0.450620,2.857826,5.229140,27.419338
3.304462,14.365691,3.728717,3.058798,0.458012,2.897213,5.246279,27.390184
3.319246,14.571620,3.559001,3.127629,0.471069,2.987532,5.294653,27.223953
3.393807,14.892614,3.414004,3.210489,0.486995,3.069203,5.412251,27.711130
3.432188,14.945095,3.354470,3.240588,0.491479,3.083661,5.454127,27.912617
3.538628,14.924929,3.228601,3.318077,0.502890,3.147575,5.568722,28.298885
3.563641,14.806599,3.195307,3.329863,0.506102,3.162592,5.599492,28.444407
3.578398,14.707417,3.164675,3.319766,0.509058,3.193146,5.640743,28.583176
3.582774,14.483462,3.086706,3.269636,0.516581,3.246777,5.740042,28.782265
3.575855,14.421603,3.086000,3.251631,0.518698,3.271680,5.764287,28.804983
3.577043,14.327374,3.088506,3.235066,0.520647,3.302225,5.786592,28.826231
3.582261,14.114348,3.088942,3.174294,0.509174,3.382725,5.813557,28.759212
3.574554,13.861334,3.025715,3.045441,0.567577,3.482855,5.846866,28.481060
3.542439,13.588905,2.961795,2.929137,0.688457,3.634590,5.882209,28.376497
3.533489,13.423563,2.935762,2.877862,0.781753,3.695974,5.893861,28.133938
3.523385,13.080771,2.889774,2.787285,0.946563,3.812009,5.926991,27.584658
3.514832,12.708024,2.862880,2.710612,1.101197,3.939286,5.949275,26.899652
3.514974,12.513536,2.856789,2.661169,1.169371,4.028389,5.951056,26.588099
3.504322,12.314952,2.851185,2.615679,1.232093,4.110367,5.952693,26.295683
3.453100,11.719433,2.832906,2.397109,1.407833,4.279875,5.828317,25.471598
3.430135,11.410089,2.825812,2.256652,1.476896,4.307439,5.786744,25.337440
3.372930,10.948064,2.857568,2.085341,1.563822,4.359019,5.720899,25.263424
3.348459,10.849104,2.868885,2.037115,1.590011,4.379278,5.687243,25.198126
3.342278,10.634017,2.945673,2.021636,1.636276,4.405109,5.648501,25.009844
3.334618,10.379170,2.967940,2.008028,1.702974,4.416752,5.586134,24.727303
3.316931,10.098528,2.953871,1.996046,1.759433,4.387173,5.532750,24.583054
3.282456,9.806953,2.957966,1.946883,1.820541,4.414888,5.504882,24.804960
3.267452,9.673506,2.959772,1.918587,1.847482,4.436497,5.505659,24.821577
3.252288,9.514330,2.961433,1.892553,1.872269,4.475335,5.502205,24.826485
3.173742,9.008742,2.934347,1.785620,2.071020,4.532451,5.453721,24.886246
3.166992,8.678002,2.924332,1.734994,2.186380,4.537712,5.442022,24.901838
3.175137,8.416707,2.915855,1.674906,2.291327,4.735284,5.443595,25.137457
3.192195,8.294731,2.904194,1.624349,2.479311,4.966938,5.461681,25.542732
3.208329,8.222269,2.896903,1.601819,2.576377,5.104359,5.470496,25.885706
3.253585,8.094616,2.928922,1.579290,2.883269,5.383422,5.431936,26.537876
3.304343,8.096637,2.965496,1.577633,3.122584,5.564081,5.485273,27.002985
3.342317,8.098495,2.999146,1.576109,3.499082,5.791754,5.546215,27.490788
3.566510,8.138221,2.873391,1.515600,4.876481,6.686276,5.696562,28.359245
3.587327,8.134932,2.872236,1.506387,5.172019,6.903301,5.723317,28.422091
3.605309,8.150163,2.866749,1.497911,5.521164,7.097060,5.761473,28.618517
3.703815,8.182948,2.833441,1.535404,6.762133,8.038237,5.875688,29.466692
3.731763,8.201572,2.824065,1.600243,7.184731,8.431106,5.903383,29.818682
3.799145,8.206310,2.922747,1.779580,8.062874,9.159318,5.971242,30.450397
3.853693,8.137799,3.023701,2.138698,8.944570,9.807495,6.015907,31.039520
3.872454,8.130044,3.054873,2.324674,9.399581,10.102573,6.051917,31.328106
3.933355,8.102970,3.109940,2.654376,10.214938,10.742154,6.118591,32.338814
4.177934,8.242576,3.167625,3.221370,11.533247,11.901138,6.245968,34.363312
4.367018,8.341544,3.198805,3.713595,12.612900,12.871135,6.396772,35.437248
4.478212,8.385532,3.208135,3.998110,13.101106,13.371405,6.505711,35.897202
4.731360,8.637622,3.444275,4.897431,13.932693,14.363101,6.907503,36.910065
4.841752,8.756808,3.548381,5.422000,14.320625,14.806711,7.111746,37.440788
5.081162,9.008103,3.767131,6.625063,15.364279,15.597099,7.614160,38.774036
5.281972,9.273785,4.006276,7.697647,16.879723,16.394617,8.135464,39.926369
5.362296,9.354494,4.111706,8.172682,17.810476,16.803356,8.405376,40.467991
5.564771,9.581222,4.387904,9.380171,20.845177,17.977119,9.104316,41.888859
5.721627,9.791276,4.611239,10.754268,23.800014,19.138229,9.741453,43.166775
5.895102,10.038773,4.858613,12.769768,26.692364,20.133337,10.268535,44.241524
5.960059,10.148120,5.028872,13.934547,28.503326,20.651775,10.626692,45.069595
6.001237,10.217344,5.146294,14.494855,29.287378,20.871946,10.801558,45.613277
6.100659,10.411374,5.399244,15.519542,30.927944,21.390911,11.172876,46.748959
6.157194,10.500669,5.524147,15.988007,31.651213,21.630219,11.365697,47.112255
6.265366,10.663916,5.744790,16.980883,32.922760,22.010563,11.708934,47.618698
6.365287,10.761790,5.949421,18.105154,34.005714,22.442886,12.070773,48.127983
6.409339,10.798624,6.073363,18.696587,34.434116,22.649517,12.255525,48.441296
6.657286,11.108261,6.661108,21.453739,36.441719,23.519630,13.087903,49.748001
6.697055,11.110804,6.780129,21.982153,36.778698,23.573765,13.222044,49.928375
6.781803,11.059846,7.011178,22.935610,37.293930,23.619600,13.443202,50.056126
6.854136,10.882013,7.282917,24.113773,37.948063,23.566154,13.756133,50.416386
6.852160,10.739193,7.346318,24.438248,38.103958,23.495235,13.797434,50.477428
6.846097,10.492975,7.458317,25.027891,38.043045,23.223928,13.862290,50.502064
6.798284,10.275553,7.619932,25.510433,38.119816,23.062675,14.000978,50.586239
6.784899,10.194917,7.699174,25.709681,38.250851,23.029623,14.102949,50.649776
6.755213,10.104301,7.805374,26.099661,38.419937,22.942604,14.294945,50.612450
6.713418,10.053019,8.000948,26.471010,38.247520,22.670580,14.441458,50.244041
6.684566,10.027189,8.291204,26.823124,38.023907,21.877972,14.635320,49.668793
6.701070,10.223674,8.424804,26.815100,37.962872,21.412668,14.771922,49.417770
6.715597,10.306321,8.485751,26.777832,37.797596,21.200096,14.868823,49.290375
6.760437,10.473129,8.626764,26.698797,37.499611,20.821487,15.018356,49.075298
6.752467,10.609488,8.972452,26.652275,37.230026,20.337463,15.204124,48.808144
6.712229,10.682212,9.243220,26.692627,36.995842,20.049236,15.306833,48.665958
6.655020,10.770999,9.772987,26.529182,36.311649,19.444118,15.497995,48.576645
6.461622,10.793764,10.378981,26.071054,35.179100,18.131372,15.521642,48.490124
6.376522,10.756317,10.494641,25.775267,34.815804,17.729542,15.457200,48.454117
6.108778,10.519191,10.781127,24.306168,32.937023,16.336102,15.039505,48.550827
6.052864,10.446764,10.866250,23.963116,32.163277,15.909318,14.874524,48.646473
5.958430,10.331260,11.375536,23.461428,30.294109,15.116394,14.600583,48.742245
5.907831,10.285798,11.606684,23.243834,29.361855,14.754091,14.501309,48.658970
5.856123,10.270825,11.856500,23.082050,28.339321,14.382509,14.379529,48.449974
5.773634,10.233595,12.297804,22.712029,26.832586,13.699058,14.161489,48.102989
5.728263,10.238077,12.484129,22.301685,26.174412,13.391617,14.024282,47.956554
5.708539,10.288268,12.626352,21.790352,25.465740,13.095164,13.917481,47.856949
5.689501,10.305648,12.777996,21.265797,24.795784,12.817509,13.821741,47.801956
5.693383,10.219605,13.314205,18.884249,21.316626,11.683738,13.451294,47.930069
5.678351,10.125158,13.773514,18.071117,20.080778,11.257101,13.377781,47.763638
5.664356,10.084613,13.979714,17.713217,19.587910,11.065399,13.327744,47.699356
5.661859,10.035903,14.169429,17.218611,19.127260,10.889026,13.278984,47.706032
5.644039,9.981176,14.617749,16.282246,18.476244,10.534924,13.121572,47.687622
5.641392,9.964756,14.813326,15.777881,18.196114,10.366569,13.046909,47.603535
5.616833,9.910846,14.981241,15.277342,17.932459,10.224753,12.961253,47.582760
5.595129,9.858609,15.475009,14.462585,17.556086,9.887606,12.801919,47.584892
5.556793,9.852725,16.272711,13.672574,17.460968,9.602291,12.740973,48.104507
5.544946,9.948922,17.815342,12.607096,17.196674,9.263915,12.703058,49.059471
5.549855,9.982312,18.464504,12.234176,16.960487,9.173558,12.615429,49.106377
5.570489,9.996205,18.798075,12.085650,16.788721,9.205105,12.545441,49.263062
5.589984,9.959609,19.387339,11.824937,16.485292,9.303493,12.408319,49.582211
5.589521,9.919905,19.869497,11.613667,16.152679,9.354218,12.250903,50.083477
5.582269,9.882440,20.109472,11.531694,16.127617,9.364557,12.153980,50.432446
5.577858,9.814198,20.341948,11.496821,16.084700,9.402284,12.068917,50.871704
5.622980,9.678651,20.907782,11.303110,16.381172,9.550791,11.930572,52.397728
5.683149,9.633507,21.118713,11.228507,16.595156,9.592135,11.973079,53.071503
5.949206,9.289381,21.681387,11.064911,17.537701,9.829371,12.112642,55.583241
5.974858,9.225045,21.768410,11.025611,17.751776,9.868767,12.142714,55.975468
5.999300,9.035457,21.931671,10.916228,18.129940,9.920337,12.186134,56.658981
6.009228,8.828757,21.806341,10.756857,18.449511,9.924579,12.156034,56.957993
6.036483,8.687152,21.453848,10.480750,18.779705,9.835600,12.000790,57.302193
6.061193,8.667303,21.323898,10.422087,18.872997,9.811553,11.970321,57.342937
6.124793,8.694772,21.083597,10.266737,19.217854,9.778464,12.001488,57.309700
6.163483,8.720520,21.025402,10.182540,19.411161,9.775348,12.033460,57.193184
6.274082,8.954947,20.872015,9.936480,20.066734,9.799788,12.159736,56.219875
6.307464,9.074985,20.621035,9.833041,20.206867,9.815128,12.169307,55.872353
6.375916,9.258339,20.157286,9.635959,20.454416,9.838998,12.170557,55.153877
6.445534,9.393340,19.695086,9.370793,20.455664,9.829062,12.186529,54.492847
6.473441,9.467323,19.580528,9.303492,20.298697,9.785171,12.198998,54.224934
6.482947,9.471446,19.459143,9.250114,20.200569,9.752853,12.205678,53.919830
6.500070,9.454790,19.367085,9.243616,20.165529,9.744357,12.209055,53.705532
6.523995,9.443984,19.380911,9.246263,20.150084,9.755353,12.260296,53.605473
6.528980,9.438524,19.384760,9.246538,20.135870,9.765470,12.273972,53.453648
6.538003,9.463722,18.836248,9.187532,20.076981,9.759146,12.126946,52.522076
6.523781,9.511291,18.641159,9.174467,20.013102,9.755854,12.082134,52.392353
6.506863,9.707173,18.028139,9.086192,19.695005,9.680857,11.983100,52.141052
6.514874,9.755750,17.801411,9.055087,19.572643,9.643487,11.946974,52.085785
6.555867,9.842873,17.652742,8.989604,19.356489,9.591660,11.865408,51.992592
6.568239,9.880211,17.140078,8.724703,18.726524,9.567211,11.726217,51.908916
6.567814,9.899177,16.778006,8.597879,18.488897,9.540635,11.631802,51.723743
6.586638,9.908431,16.093880,8.230155,18.069124,9.527386,11.462924,51.410461
6.568592,9.884153,15.412421,7.854560,17.713795,9.495271,11.325399,51.161839
6.544797,9.937168,14.493291,7.383308,17.256050,9.385201,11.173952,50.456543
6.551020,10.237997,13.814984,7.006080,16.806097,9.088755,11.040257,49.270061
6.566459,10.326375,13.634846,6.916453,16.647228,8.989953,10.953602,48.817162
6.580663,10.445518,13.430622,6.822824,16.277039,8.847469,10.864874,48.228313
6.578327,10.770496,12.928441,6.450391,15.199585,8.369542,10.546360,46.251541
6.522292,10.873397,12.764501,6.348091,14.663811,8.214657,10.403534,45.443096
6.442081,10.999486,12.549439,6.253971,14.156293,8.072156,10.217497,44.603390
6.217013,11.224702,12.002041,5.910423,12.665258,7.659703,9.700191,42.824722
6.110367,11.311352,11.704076,5.715606,11.599358,7.428759,9.459295,41.924736
6.029962,11.518138,11.150129,5.459804,10.499409,7.208404,9.174829,40.796925
6.023896,11.655362,11.023121,5.424394,10.189764,7.161834,9.130310,40.541561
5.976097,11.967409,10.883677,5.397816,9.429060,7.096014,9.020144,39.442936
5.885784,12.120794,10.944768,5.279990,9.016876,7.079519,8.953185,38.674576
5.852412,12.153440,10.973498,5.228044,8.810127,7.068022,8.914168,38.423222
5.776915,12.201607,10.957778,5.079938,8.191469,6.959851,8.779164,37.924427
5.685735,12.228728,10.861338,4.936878,7.667788,6.922132,8.614256,37.389496
5.630821,12.237330,10.824985,4.879154,7.449423,6.905539,8.538324,37.064560
5.537328,12.150484,10.760769,4.930665,7.057017,6.876970,8.449528,36.756504
5.478408,12.060300,10.705299,5.152348,6.724853,6.863500,8.417067,36.661457
5.479077,12.284160,10.578378,5.532427,6.350679,6.916950,8.340596,36.520042
5.484515,12.369388,10.458250,5.569226,6.141358,6.924191,8.320852,36.359489
5.499004,12.446314,10.315277,5.603084,5.911855,6.944442,8.308056,36.203899
5.505311,12.491528,10.170939,5.614086,5.700700,7.007828,8.321681,35.937546
5.412350,12.604895,9.728339,5.629219,5.237207,7.152865,8.284066,34.730412
5.366782,12.639489,9.540112,5.630332,5.106730,7.201649,8.244019,34.355820
5.282846,12.687281,9.207603,5.632296,4.876238,7.287826,8.139310,33.711189
5.260206,12.740114,8.926141,5.633959,4.681131,7.368013,8.069398,33.465431
5.263949,12.776659,8.796778,5.634693,4.592504,7.418455,8.049386,33.392574
5.193994,12.959411,8.467506,5.609558,4.366919,7.480754,7.920058,32.967052
5.156808,13.124113,8.273013,5.697638,4.303414,7.486338,7.880047,32.845325
5.186450,13.465465,7.798819,5.864615,4.176091,7.498773,7.907027,32.799454
5.289255,13.741406,7.413384,6.017859,4.021521,7.486359,8.003389,32.541725
5.336175,13.883473,7.235731,6.094254,4.000367,7.471350,8.052545,32.369709
5.391538,14.209275,7.004855,6.357333,3.962997,7.461611,8.144909,32.001083
5.436176,14.487147,6.816306,6.609884,4.411179,7.656691,8.227618,31.664867
5.460331,14.606302,6.749342,6.720261,4.624231,7.760726,8.296157,31.459440
5.501556,14.718419,6.594218,6.935720,5.022642,7.965065,8.455132,31.133614
5.512788,14.862721,6.242103,7.520500,5.544533,8.357234,8.672194,30.988628
5.516647,14.877481,6.164207,7.717934,5.723919,8.517904,8.772771,30.974480
5.608682,14.905271,5.861773,8.633615,6.206147,8.953595,9.066635,31.062176
5.652760,14.910654,5.810176,8.923222,6.358265,9.092364,9.188980,31.116451
5.720051,14.859841,5.909281,9.488324,6.854347,9.611671,9.493599,31.000889
5.728814,14.844818,5.981451,9.761555,7.144532,10.006324,9.657840,30.863070
5.744954,14.868067,6.170893,10.413291,7.709575,10.798213,9.909935,30.517811
5.735819,14.818989,6.255089,10.752040,7.983805,11.152909,10.057944,30.348568
5.703834,14.723289,6.401256,11.357940,8.296670,11.753046,10.273092,30.034916
5.684962,14.591777,6.526797,12.278275,9.169464,12.701754,10.480476,29.259729
5.693666,14.549981,6.490465,12.512995,9.483160,13.011067,10.553128,29.182024
5.701674,14.503570,6.434878,12.797505,9.771774,13.370751,10.640609,29.168695
5.716773,14.463309,6.528343,13.845844,10.487772,14.047158,10.856725,29.207991
5.751187,14.444266,6.700921,15.205991,11.394562,14.693133,11.074724,29.517618
5.889419,14.428217,6.834139,16.601263,12.540171,15.206227,11.347220,30.266077
6.089542,14.507394,7.021234,18.200583,13.910300,15.990150,11.665976,31.158997
6.260897,14.652001,7.179606,19.403381,15.139544,16.789120,11.967309,32.197384
6.322817,14.698938,7.238939,19.938257,15.705123,17.143276,12.090955,32.702820
6.481253,14.303652,7.408817,21.501255,18.193638,18.464613,12.623286,34.747871
6.526274,14.193325,7.487734,21.928476,18.897346,18.839525,12.739960,35.253754
6.647931,14.054655,7.650512,22.896570,20.223713,19.553030,12.932868,36.441971
6.789446,13.958450,7.938324,24.062054,21.872408,20.384485,13.069632,37.595684
6.872418,13.924597,8.155148,24.650923,22.767347,20.741747,13.120039,38.195133
7.156747,13.859923,8.928684,26.248392,25.555782,22.026066,13.359023,40.064953
7.264670,13.718586,9.404127,27.703726,27.199493,22.763329,13.517505,40.738033
7.338603,13.648992,9.644967,28.469465,28.009790,23.108536,13.591716,41.090611
7.703887,13.058497,10.536745,31.009594,30.841276,24.761101,14.237663,43.115791
7.741545,12.909039,10.783399,31.546122,31.422991,25.103577,14.414454,43.652176
7.779996,12.655221,11.262487,32.840321,32.595924,25.794806,14.747272,44.808758
7.795789,12.388764,11.624823,34.151867,33.772739,26.456942,15.045784,46.126278
7.809360,12.270318,11.798703,34.722355,34.314709,26.745300,15.201599,46.895527
7.853438,12.220873,11.993090,35.332073,34.653873,26.914286,15.349525,47.601051
7.945630,12.234405,12.720027,37.192162,35.670559,27.633461,15.631064,49.584335
7.951440,12.320079,12.973280,37.739071,35.971291,27.808172,15.678126,50.075691
7.955674,12.412842,13.237114,38.145512,36.247982,27.926329,15.731964,50.562973
7.928285,12.546309,14.125998,39.216309,37.077801,28.144169,15.990630,52.700001
7.900889,12.569677,14.300222,39.338131,37.233524,28.184301,16.046930,53.143524
7.816610,12.571809,14.646414,39.515144,37.537312,28.236954,16.115936,54.229492
7.789449,12.578587,14.694453,39.547180,37.423256,28.027292,16.089853,54.572430
7.741913,12.600857,14.734373,39.525341,37.221767,27.437342,16.035830,55.143124
7.686654,12.670333,14.732260,39.178181,36.830986,26.588720,15.924037,56.188656
7.682517,12.703753,14.731665,39.082066,36.720985,26.351685,15.899626,56.433559
7.664998,12.673745,14.699793,38.878571,36.433681,25.919867,15.854368,56.904369
7.627059,12.707936,14.623707,38.639744,35.959312,25.417141,15.714182,57.241505
7.589945,12.809238,14.449399,37.850925,35.121067,24.351482,15.466493,57.867779
7.584678,12.831211,14.361832,37.360607,34.781097,24.048950,15.342261,58.006657
7.579832,12.873266,14.271700,36.768887,34.456120,23.749432,15.229427,58.099373
7.478900,12.953021,14.280474,35.563942,33.533424,23.207502,14.919069,58.002357
7.314301,12.969649,14.365192,34.195831,32.370045,22.582987,14.590364,57.511684
7.205724,12.962715,14.381040,33.443996,31.764696,22.164902,14.371458,57.195099
7.044534,12.944658,14.409031,32.047421,30.826103,21.356236,14.061785,56.281647
6.982405,12.958996,14.421371,31.402323,30.388662,20.991072,13.954287,55.960522
6.925243,12.972622,14.433037,30.837509,29.986195,20.652647,13.839520,55.646530
6.789798,13.002110,14.453643,29.851097,28.903545,19.939220,13.641264,55.009190
6.618749,13.051013,14.539857,29.028532,27.692894,19.151884,13.491626,54.760036
6.435020,13.147421,14.625847,28.041885,26.498154,18.302670,13.333272,54.393543
6.334970,13.191720,14.610200,27.456139,25.797636,17.815243,13.269447,54.228920
6.137576,13.292989,14.465484,26.264904,24.146912,16.941032,13.188998,53.973892
5.935970,13.334800,14.248116,25.191870,22.399723,16.049780,13.081955,53.796936
5.760270,13.378136,14.089010,23.986347,21.001085,15.297498,13.047439,53.684933
5.690967,13.397552,14.030321,23.208677,20.437395,14.987121,13.010335,53.651627
5.524202,13.446627,13.862666,21.720282,19.325087,14.316273,12.980171,53.335281
5.326416,13.595154,13.695915,20.388397,18.413841,13.576590,12.715657,52.793728
5.170907,13.811125,13.419137,19.085585,17.679901,12.955835,12.391104,52.198563
4.935830,13.996432,13.019778,16.929981,16.414928,11.997525,11.938570,51.611526
4.868974,14.043989,12.946572,16.199844,15.955848,11.740888,11.822812,51.428715
4.724911,14.022615,12.851686,14.768360,15.080034,11.250033,11.585215,50.914402
4.574610,13.874098,12.607799,13.325492,14.142278,10.569281,11.409738,50.470245
4.503324,13.774754,12.455356,12.659838,13.671566,10.253819,11.376364,50.258797
4.420354,13.424685,12.132616,11.433193,12.887378,9.718009,11.331755,50.281731
4.409078,13.248634,11.975559,10.879746,12.564340,9.501323,11.322561,50.169914
4.403718,12.981617,11.646723,9.878649,12.464099,9.382920,11.295852,50.143818
4.506949,12.599226,11.313585,8.343834,12.697846,9.657844,11.421443,51.113701
4.551419,12.494372,11.312925,8.051408,12.889926,9.727811,11.439586,51.325729
4.652330,12.342985,11.329900,7.534830,13.235325,9.836390,11.475419,51.694923
4.696373,12.336682,11.346080,7.307089,13.390518,9.877060,11.481222,51.857449
4.773798,12.467121,11.590243,6.920397,13.664672,9.939468,11.471231,52.032978
4.844248,12.622494,12.000628,6.604212,13.909953,9.982833,11.442148,52.313217
4.900287,12.728573,12.379447,6.368342,14.129737,9.994636,11.522659,52.708855
4.920132,12.756644,12.554838,6.284389,14.226633,10.000153,11.597101,52.947598
4.947648,12.735838,12.723908,6.241019,14.315782,10.005228,11.681658,53.068886
5.019830,12.689926,13.119337,6.126544,14.502807,10.029126,11.885649,53.215412
5.028497,12.485981,13.241940,5.937796,14.519623,9.900353,12.026464,53.115265
5.025739,12.345366,13.156882,5.796813,14.484547,9.851509,12.100017,52.901894
5.046133,12.183108,13.060638,5.645959,14.430652,9.803648,12.168524,52.878571
5.039506,11.990120,13.035701,5.536199,14.193914,9.759747,12.125673,53.008781
5.050035,11.871796,13.307039,5.415207,13.993521,9.763363,12.078188,53.034359
5.071240,11.860655,13.486811,5.359776,13.880265,9.766840,12.095609,53.191151
5.128174,11.814264,13.801189,5.204638,13.680198,9.777168,12.118235,53.452343
5.234917,11.751827,13.972114,5.006172,13.510843,9.785011,12.164492,53.588654
5.432817,11.609669,14.194784,4.692654,13.084424,9.644006,12.272666,53.436943
5.503980,11.525336,14.179309,4.574875,12.889714,9.551794,12.360373,52.869423
5.535353,11.476060,14.162083,4.560236,12.763035,9.483059,12.372116,52.453156
5.555528,11.473918,14.188454,4.560073,12.481063,9.380080,12.376472,52.072945
5.592920,11.484496,14.235041,4.562118,11.953171,9.212475,12.351804,51.468193
5.601738,11.542150,14.255578,4.561432,11.706170,9.107015,12.380292,51.348625
5.602143,11.545564,14.274473,4.560802,11.424718,9.036242,12.406502,51.214802
5.634407,11.340515,14.322569,4.559199,10.648941,8.843313,12.474838,50.855465
5.669340,11.260489,14.327360,4.533870,10.192603,8.741241,12.444253,50.071892
5.694821,11.168745,14.272522,4.480616,9.571630,8.538089,12.292276,48.901695
5.686654,11.143987,14.222309,4.494032,9.380085,8.474492,12.225155,48.565147
5.652779,11.080988,14.036038,4.547778,8.954962,8.307945,12.103546,47.691055
5.605739,11.166963,13.907392,4.559833,8.729190,8.201423,12.023880,46.862942
5.524035,11.368226,13.804480,4.582915,8.313791,8.018502,11.880877,45.984287
5.470018,11.424615,13.742734,4.592958,7.963985,7.764995,11.794581,45.423409
5.303130,11.555371,13.528750,4.584758,6.955573,6.913639,11.481855,43.891708
5.218965,11.609867,13.408372,4.582535,6.538717,6.641267,11.416865,43.455765
4.853468,11.551184,12.710229,4.594813,4.855726,5.659246,11.487629,42.201263
4.786752,11.414070,12.525036,4.608285,4.615045,5.547261,11.556056,42.063099
4.660372,11.104784,12.084386,4.641891,4.176659,5.383715,11.740260,41.764332
4.527184,10.836697,11.708991,4.643477,3.793414,5.286345,11.783951,41.253605
4.477128,10.708499,11.542985,4.635150,3.624454,5.255868,11.793036,40.976406
4.373262,10.479966,11.233346,4.555404,3.325984,5.196739,11.816179,40.466511
4.310126,10.373981,11.089505,4.521848,3.231815,5.169420,11.809914,40.231667
4.259876,10.273864,10.968386,4.490975,3.264836,5.144286,11.842646,40.121075
4.227842,10.244569,10.899850,4.553773,3.295217,5.135854,11.873668,40.112499
4.164421,10.348618,10.533145,4.931429,3.421209,5.088233,11.941978,40.184162
4.129094,10.439610,10.366137,5.147281,3.474202,5.115420,12.053425,40.058369
4.096262,10.558481,10.168237,5.335651,3.817527,5.187983,12.248520,40.175262
4.080072,10.594089,9.968943,5.425089,3.973869,5.210192,12.320137,40.197334
4.036750,10.539261,9.487088,5.561121,4.250052,5.243763,12.341446,39.914925
4.011271,10.541846,9.250637,5.624137,4.371811,5.266386,12.366484,39.729359
3.972006,10.554577,9.033090,5.867442,4.612239,5.313432,12.375743,39.400021
3.874901,10.549812,8.761090,6.711191,5.036962,5.418893,12.432796,38.934288
3.803378,10.552399,8.503420,7.642886,5.478718,5.519582,12.514299,38.696232
3.690231,10.510781,8.251723,8.893848,6.021069,5.915090,12.665009,38.645844
3.621812,10.522099,8.203567,9.581673,6.318574,6.190068,12.706257,38.668343
3.591863,10.494720,8.101572,9.911613,6.468543,6.296039,12.740294,38.689377
3.549944,10.335319,7.933253,10.789674,6.882579,6.548283,12.848613,39.045734
3.551378,10.248422,7.865517,11.314507,7.116258,6.631851,12.945539,39.206154
3.558344,10.219499,7.835655,11.564354,7.235259,6.685162,13.039223,39.356789
3.583137,10.163850,7.782902,12.005711,7.604952,6.796921,13.203817,39.772751
3.597310,10.206394,7.806959,12.408525,8.184052,7.084419,13.426126,40.301010
3.608900,10.234756,7.808446,12.574184,8.540668,7.356915,13.540835,40.518879
3.649007,10.307157,7.764027,12.929481,9.170638,7.807785,13.766919,40.948452
3.743536,10.419412,7.734773,13.534875,9.988110,8.378154,14.036328,41.617611
3.878462,10.516434,7.730766,14.032554,10.567126,8.758753,14.230363,42.308189
3.984869,10.588736,7.728469,14.324469,10.816149,8.949594,14.361431,42.700317
4.082549,10.657189,7.726356,14.593042,11.125237,9.128657,14.483590,43.066723
4.177302,10.749084,7.735965,14.904747,11.440825,9.307755,14.603883,43.434330
4.343583,10.927801,7.836788,15.649272,12.447641,9.635669,14.791869,43.922684
4.415937,11.016829,7.928995,16.254513,12.941480,9.798170,14.849236,44.213654
4.489447,11.118983,8.111438,16.990349,13.458347,9.956672,14.884837,44.552124
4.748608,11.538465,8.823507,19.190536,15.049085,10.430943,15.105527,45.737617
5.017757,12.054483,9.214190,20.920567,17.210411,10.803890,15.396700,47.087414
5.216857,12.499231,9.603559,22.485142,18.576601,11.031044,15.539976,48.185406
5.306630,12.797347,9.865213,23.428534,19.206638,11.175350,15.617118,48.742363
5.543163,13.450140,10.372896,25.240339,20.319620,11.419935,15.823407,50.074230
5.841578,14.059178,10.876889,26.931826,21.345123,11.683709,15.999068,51.623642
6.098796,14.650956,11.352516,28.385992,22.108755,11.956071,16.121399,53.283833
6.195280,14.861309,11.564516,28.952686,22.388075,12.053336,16.168699,53.936588
6.363280,15.219792,11.941262,29.954800,22.944252,12.259665,16.326536,55.081112
6.441648,15.394690,12.121546,30.365185,23.219517,12.350239,16.400507,55.582901
6.819720,16.214172,13.543687,32.225914,23.991289,12.697230,16.487700,57.700352
6.892371,16.326544,13.856939,32.669449,24.119356,12.814181,16.493830,58.174377
6.959212,16.429934,14.161970,33.179913,24.237183,12.986422,16.505501,58.607536
7.123544,16.886759,14.965474,34.855942,24.408688,13.403666,16.535637,59.835766
7.165305,17.054909,15.130442,35.086979,24.374975,13.500127,16.526716,60.157509
7.225088,17.209616,15.314467,35.162762,24.427820,13.601491,16.516918,60.419193
7.411404,17.513735,15.737729,35.289265,24.460155,13.836287,16.405239,60.850597
7.523034,17.695738,15.963276,35.553375,24.641363,13.737657,16.380070,61.063221
7.586141,17.794809,16.073145,35.808216,24.724976,13.681564,16.363077,61.138557
7.765489,18.109531,16.605221,36.437775,25.179111,13.586072,16.313309,61.200962
7.802314,18.320621,17.017496,36.859386,25.501701,13.548930,16.268326,61.021099
7.801835,18.429932,17.401581,37.289776,25.825941,13.517263,16.180769,60.907883
7.779931,18.482794,17.570911,37.501945,25.952908,13.503393,16.088974,60.716423
7.704509,18.532759,17.916786,37.948723,26.058399,13.451851,15.989063,60.291515
7.681049,18.491335,18.005796,38.111507,26.083555,13.387785,15.962358,60.213963
7.655857,18.428951,18.087690,38.261269,26.106701,13.233088,15.909060,60.162766
7.537462,18.125101,18.519617,38.559357,25.823011,12.416891,15.892357,59.944618
7.456103,17.991358,18.726299,38.525906,25.601391,12.088387,15.818656,59.904293
7.187105,17.526588,19.002037,38.219360,25.099424,11.581633,15.591318,59.192173
7.084415,17.359432,19.089014,38.081768,24.872261,11.418221,15.507199,58.921181
6.985053,17.231195,19.157486,37.897743,24.642292,11.259178,15.429801,58.630768
6.745852,17.155785,19.144716,36.992088,23.429644,10.921682,15.316303,57.802471
6.690581,17.137114,19.030474,36.410435,23.038597,10.857813,15.288931,57.589943
6.640358,17.079969,18.826666,35.779091,22.623720,10.776484,15.242134,57.405933
6.509981,16.903318,18.386703,34.139744,21.066620,10.538761,14.839108,56.471901
6.411809,16.773031,18.064402,33.197857,19.673929,10.383784,14.473024,55.804512
6.302584,16.563841,17.676636,31.772446,18.395687,10.192108,14.139099,54.965279
6.262948,16.355131,17.473120,30.887585,17.804419,10.056729,14.038487,54.643028
6.106935,15.830812,17.186348,29.262583,16.838446,9.838928,13.772589,53.842201
5.998088,15.554454,17.078238,28.472425,16.391914,9.712950,13.610572,53.368172
5.881990,15.306892,17.016333,27.727060,15.937378,9.587548,13.483240,52.847767
5.680892,14.845802,16.848444,26.401838,15.087580,9.323121,13.289494,51.789570
5.522533,14.442619,16.640411,25.215075,14.368241,9.112188,13.111375,50.766079
5.460747,14.272589,16.546721,24.676191,13.978639,9.010583,13.006721,50.319717
5.261123,13.569687,15.909261,22.743786,12.712964,8.638100,12.670062,49.652927
5.236610,13.425117,15.750570,22.296509,12.458394,8.530567,12.616630,49.427197
5.225632,13.080601,15.396195,20.857208,12.082896,8.102809,12.390762,48.473263
5.354207,12.802071,15.096725,19.510902,12.212918,7.899220,12.344721,48.449100
5.402386,12.595976,14.964698,18.901285,12.348324,7.794922,12.304273,48.517578
5.476378,12.210544,14.712723,17.776531,12.503658,7.624924,12.276907,48.632965
5.527299,11.877860,14.561918,16.771034,12.557989,7.559979,12.337068,49.070198
5.554363,11.739405,14.511036,16.311171,12.565627,7.544534,12.357199,49.350067
5.591896,11.600217,14.450541,15.830535,12.495947,7.526780,12.352808,49.700249
5.642835,11.181321,14.101001,14.039801,12.491934,7.513038,12.361896,50.871620
5.699989,10.889362,13.771694,12.940806,12.348804,7.498600,12.376954,51.816418
5.769728,10.597419,13.406911,11.890133,12.226289,7.523880,12.380123,52.345245
5.809920,10.464970,13.222288,11.438260,12.160998,7.564404,12.458050,52.501358
5.900601,10.239645,12.913464,10.498008,12.125987,7.637105,12.651334,52.915405
6.117197,10.045661,12.621233,9.659008,12.370458,7.706951,12.842194,53.720024
6.248832,9.967203,12.531806,9.338942,12.457061,7.828757,12.912967,54.031384
6.522726,9.828607,12.417433,8.785615,12.821231,8.006024,13.025590,54.405827
6.652666,9.767503,12.340268,8.533228,13.082975,8.076844,13.059928,54.649601
7.243360,9.658952,11.889359,7.711871,13.984662,8.351239,13.164811,55.568684
7.520638,9.750146,11.696316,7.405571,14.462111,8.423109,13.175536,56.028881
7.642880,9.774639,11.593972,7.270534,14.672604,8.456361,13.209221,56.268028
7.748922,9.796620,11.511364,7.179523,14.866265,8.499178,13.262332,56.646427
7.854912,9.762380,11.436192,7.100703,15.033622,8.538991,13.328969,57.144844
8.083248,9.630287,11.314727,6.888048,15.329262,8.588152,13.400625,57.926292
8.318923,9.497443,11.404800,6.715191,15.456426,8.537562,13.464787,58.309109
8.449756,9.472157,11.488674,6.637610,15.549270,8.506182,13.535769,58.365143
8.549926,9.423002,11.557968,6.556670,15.634690,8.483633,13.631022,58.330055
8.645148,9.409808,11.621720,6.482202,15.726784,8.462888,13.699191,58.360249
9.009171,9.391978,11.912908,6.279619,16.085220,8.298544,14.103822,58.127064
9.050313,9.410307,11.869973,6.275185,16.141161,8.256092,14.137544,58.156113
9.109503,9.442685,11.733924,6.177824,16.161461,8.149257,14.222310,58.170925
9.121755,9.508291,11.639049,6.139946,16.170410,8.100843,14.286496,58.163250
9.199303,9.685818,11.491604,6.097293,16.193188,7.975433,14.338188,57.759533
9.246078,9.773064,11.421771,6.121099,16.222584,7.910388,14.332246,57.422676
9.261840,9.753240,11.394485,6.136792,16.266232,7.882188,14.351581,57.216133
9.271124,9.776203,11.337925,6.151229,16.306393,7.856940,14.378203,57.086071
9.252257,9.886515,11.189018,6.198027,16.403463,7.800890,14.485861,56.136982
9.130451,9.948794,10.868625,6.159756,16.178579,7.736555,14.773301,55.853867
8.913013,9.969147,10.792794,6.471718,15.804271,7.550182,14.862229,55.478821
8.801010,10.040095,10.807087,6.696930,15.433892,7.429140,14.868957,55.153229
8.698973,10.121090,10.820297,6.929927,15.093130,7.317775,14.871819,54.826504
8.416402,10.327247,10.790865,7.545779,14.300074,6.954065,14.831036,54.031261
8.328815,10.412152,10.740572,7.727367,14.081603,6.792782,14.800466,53.846100
8.231142,10.469588,10.686854,7.904285,13.880599,6.632203,14.782409,53.619003
7.976435,10.741097,10.500870,8.463601,13.178520,6.300154,14.805998,53.283562
7.805946,10.947802,10.366410,8.791505,12.740766,6.100134,14.815526,52.929169
7.497160,11.265333,9.978279,9.733188,11.904749,5.724971,14.634200,52.030895
7.427378,11.319269,9.895912,10.125032,11.770758,5.619126,14.538454,51.832260
7.255987,11.406721,9.725722,10.842495,11.358815,5.463772,14.383610,51.322735
6.842458,11.515191,9.529770,12.276214,10.490868,5.066956,14.237543,50.415733
6.699159,11.617913,9.490765,12.803999,10.095266,4.929355,14.175442,50.113274
6.446536,11.834939,9.414546,13.814198,9.396425,4.675895,14.056802,49.573296
6.180543,12.055594,9.353421,14.923937,8.827520,4.434981,13.937593,48.889709
6.056476,12.145391,9.329315,15.514929,8.621372,4.337945,13.903150,48.541138
5.925076,12.197177,9.305623,16.062744,8.454720,4.263556,13.871412,48.211803
5.577539,12.385445,9.205327,18.217121,8.371576,3.989449,13.594731,46.654476
5.387690,12.369965,9.186203,19.335924,8.466100,3.973780,13.447968,45.721584
5.152849,12.282233,9.252071,20.267141,8.804958,4.014233,13.314586,45.025734
5.006862,12.210196,9.333803,20.687265,9.010936,4.022978,13.210786,44.722401
4.867310,12.145108,9.386213,21.064676,9.200443,4.042517,13.081841,44.439987
4.605672,12.135658,9.482377,21.984484,9.492775,4.103864,12.846455,44.088779
4.490340,12.136738,9.506799,22.408367,9.613743,4.176095,12.756792,43.995468
4.313131,12.092068,9.599078,23.552227,9.818800,4.337905,12.584945,43.797199
4.239551,12.046534,9.634877,24.144814,9.905064,4.419366,12.559889,43.720520
4.085720,11.900253,9.699306,26.933334,10.507677,4.692057,12.466795,43.171169
4.038224,11.759915,9.572701,28.250338,10.978204,4.884074,12.415809,43.002495
4.007607,11.682713,9.493545,28.991137,11.283820,4.975511,12.395254,42.933891
3.968204,11.651588,9.492908,30.438694,11.806621,5.109633,12.321512,43.119198
3.933022,11.588085,9.552843,31.772749,12.237905,5.262245,12.305090,43.220383
3.920237,11.572516,9.588072,32.439140,12.452376,5.337568,12.304684,43.263275
3.884591,11.529021,9.649994,33.630188,12.911841,5.468909,12.331129,43.262123
3.873896,11.547059,9.677142,34.164677,13.114404,5.528784,12.305513,43.059227
3.873188,11.587305,9.707678,34.652794,13.374932,5.591712,12.291115,42.889427
3.903961,11.908257,9.530568,35.853516,14.211508,5.823085,12.221483,42.272289
3.912426,11.911594,9.531651,36.035015,14.396811,5.885850,12.216827,42.166290
3.920215,11.914664,9.624675,36.194427,14.575595,5.971321,12.191828,42.089443
3.917491,11.921620,9.900599,36.722656,14.891418,6.116869,12.128742,42.074642
3.909756,11.927913,10.092088,37.106121,15.096691,6.181036,12.090591,42.037125
3.896093,12.050355,10.476671,37.795219,15.477645,6.328768,11.955741,41.823017
3.878851,12.067637,10.650894,38.085197,15.654379,6.420031,11.852434,41.518513
3.834356,12.043463,10.972432,38.569565,15.996307,6.617845,11.654791,40.855358
3.745785,12.196091,11.771263,39.228371,16.625916,6.906428,11.547441,40.544495
3.723874,12.252691,11.962058,39.181309,16.776527,7.010061,11.554787,40.554264
3.702806,12.339321,12.142537,39.072456,16.910627,7.093215,11.545787,40.502338
3.610282,12.607488,12.651092,39.043022,17.291714,7.266510,11.242451,39.785030
3.580400,12.678581,12.797441,39.006695,17.362354,7.324455,11.165844,39.611347
3.526747,12.734181,12.991158,38.769539,17.473879,7.452382,11.037206,39.255600
3.491219,12.726035,13.161015,38.632130,17.615355,7.520101,10.986193,39.138462
3.406838,12.623867,13.461072,38.254116,17.923738,7.658933,10.899555,38.785614
3.337975,12.480168,13.703682,37.514133,18.237013,7.797673,10.826897,38.463108
3.214633,12.322364,14.012821,36.502087,18.100172,7.990057,10.802553,38.187172
3.244389,12.321151,14.200697,35.758171,18.459030,8.212050,10.947762,38.345684
3.331945,12.341391,14.321634,35.067295,18.970587,8.346843,11.166064,38.695507
3.382300,12.352889,14.266786,34.753143,19.137691,8.389266,11.279167,38.836346
3.535336,12.418159,13.760296,34.176643,19.509806,8.516971,11.608715,39.487038
3.661193,12.347638,13.532060,33.984768,20.016291,8.594757,11.820114,39.733349
3.731652,12.339843,13.486083,33.926907,20.366735,8.586350,11.926157,39.876431
3.840198,12.291398,13.386339,33.467140,21.048414,8.638619,12.121464,39.968437
3.916678,12.274778,13.328675,32.827953,21.590458,8.765351,12.164392,39.693253
4.001697,12.423042,13.362503,31.915211,21.999884,8.964105,12.170424,39.743362
4.028159,12.488233,13.358080,31.435274,22.011860,9.051189,12.170106,39.752701
4.170623,12.654130,13.354508,30.586777,22.153658,9.173516,12.188806,39.790222
4.417756,12.778614,13.421593,29.973356,22.293606,9.270949,12.261565,40.019665
4.628859,12.788880,13.470922,29.444725,22.462797,9.326295,12.413465,40.661858
4.734263,12.812053,13.506001,29.225594,22.489716,9.343021,12.451147,40.992203
4.918474,12.756615,13.612960,28.683966,22.565207,9.392653,12.461418,41.442558
5.086020,12.638131,13.932733,28.210630,22.687494,9.516534,12.368544,41.757336
5.151685,12.546907,14.079461,27.988512,22.667246,9.574563,12.324521,41.874557
5.237855,12.278607,14.305970,27.587246,22.631472,9.635780,12.230338,41.975315
5.306958,12.077012,14.709263,27.233213,22.601194,9.709542,12.156854,42.118851
5.351227,12.000064,14.879174,27.043816,22.603783,9.745630,12.157823,42.276802
5.466583,11.810561,15.041165,26.410418,22.601971,9.789468,12.081925,42.394630
5.497372,11.726597,15.042501,26.062901,22.574017,9.809144,12.048786,42.279274
5.573757,11.487253,14.998548,25.400858,22.506302,9.777420,12.044607,42.299950
5.670169,11.289518,14.972656,24.804508,22.416636,9.651652,12.099707,42.468826
5.725008,11.226991,14.947471,24.548307,22.369686,9.609142,12.157791,42.583549
5.837801,11.073844,14.878239,24.049746,22.379995,9.581057,12.205880,42.586773
6.025718,11.103223,14.688972,23.426641,22.355486,9.620434,12.342958,42.902550
6.191434,11.173489,14.443786,22.559042,22.122963,9.607145,12.464599,43.398804
6.303435,11.275072,14.258391,21.739664,21.974190,9.579103,12.477220,43.707588
6.384335,11.350585,14.151340,21.313459,21.908600,9.565456,12.467111,43.798309
6.458766,11.436854,14.052848,20.911118,21.731325,9.547418,12.475007,44.037876
6.698065,11.780734,13.569580,19.887022,21.143543,9.514329,12.484557,44.675762
6.789705,11.881441,13.433945,19.598730,20.909304,9.527101,12.502687,44.931530
6.967844,12.089004,13.313948,19.127407,20.538177,9.512290,12.627289,45.662922
7.054818,12.169676,13.312605,18.915829,20.374561,9.527519,12.699385,45.998817
7.157594,12.233549,13.286885,18.480883,19.923548,9.510826,12.765307,46.373039
7.124575,12.280949,13.360996,17.691462,18.463442,9.391744,12.833841,46.821388
7.099447,12.312829,13.382659,17.445461,18.042973,9.329589,12.847396,46.950417
7.088528,12.345704,13.469261,16.948536,17.197035,9.238260,12.877830,47.098633
7.065003,12.370464,13.476964,16.495001,16.639910,9.206498,12.889842,47.126137
7.065523,12.386120,13.471952,16.053539,16.127333,9.214661,12.927581,47.172215
7.051757,12.277603,13.377345,15.118937,15.020731,9.249278,12.964128,47.183056
7.033150,12.192731,13.244417,14.250897,13.955791,9.192086,12.909576,47.143593
7.020719,12.152805,13.195191,13.862968,13.486295,9.145597,12.884048,47.189823
6.971591,11.988887,13.113101,13.078197,12.656090,8.969940,12.816956,47.195362
6.851654,11.574031,12.931421,12.067628,11.642997,8.655108,12.832824,46.863411
6.651782,11.310427,12.887254,11.251712,10.813740,8.530049,12.901806,47.007244
6.559292,11.210544,12.807644,10.687028,10.423833,8.474916,12.886809,46.919384
6.493526,11.122833,12.710092,10.167494,10.038682,8.428724,12.822198,46.683315
6.440484,11.035151,12.564636,9.615547,9.684326,8.452386,12.806448,46.529312
6.347772,10.816827,12.127620,8.393586,9.155173,8.636043,12.777331,46.476311
6.353139,10.775303,11.886856,8.085602,9.242579,8.736123,12.756101,46.623863
6.392293,10.740169,11.642574,7.802244,9.322997,8.815868,12.761358,46.798767
6.434875,10.696745,11.417823,7.541542,9.396984,8.893643,12.745473,46.980446
6.570390,10.548341,11.105483,6.799619,9.607668,9.136118,12.740743,47.545658
6.629382,10.421902,10.840022,6.380505,9.801003,9.229788,12.670079,47.409054
6.757815,10.335195,10.609573,6.018817,10.110647,9.330332,12.661562,47.416447
6.903827,10.250423,10.367948,5.625772,10.322748,9.405246,12.674331,47.395775
7.016552,10.184196,10.212158,5.333877,10.506982,9.542733,12.630854,47.553131
7.063539,10.157724,10.132909,5.205190,10.588204,9.610777,12.603235,47.638832
7.136109,10.122768,10.009110,4.991462,10.731685,9.707130,12.482506,47.703289
7.169632,10.075363,9.916218,4.903754,10.776073,9.731318,12.408453,47.642941
7.193213,10.037502,9.899404,4.800302,10.759891,9.731034,12.321954,47.565937
7.365731,9.454539,10.000525,4.462852,10.644838,9.654604,11.919979,47.615559
7.433091,9.277214,10.083116,4.394652,10.651777,9.662587,11.840474,47.739578
7.480612,9.098976,10.161838,4.331904,10.658164,9.669933,11.767325,47.873257
7.565153,8.702676,10.392729,4.172192,10.674415,9.719475,11.609085,48.717789
7.573397,8.606201,10.506390,4.127231,10.678990,9.704337,11.541130,48.930237
7.561033,8.361800,10.799828,4.047808,10.666053,9.667424,11.435242,49.149536
7.531415,8.175632,11.129644,3.995107,10.585030,9.597161,11.306746,49.315117
7.504247,8.101316,11.236877,3.979043,10.527365,9.564360,11.197063,49.269081
7.419455,7.894106,11.535705,4.057180,10.468262,9.404548,10.900955,48.872631
7.329553,7.683826,11.669935,4.173144,10.516635,9.212827,10.443044,48.157124
7.300665,7.556077,11.718083,4.242587,10.609843,9.104813,10.171625,47.871471
7.252303,7.474114,11.802026,4.294577,10.647507,9.016340,10.009317,47.752563
7.225209,7.421437,12.004469,4.332334,10.753940,8.837826,9.811753,47.916550
7.160758,7.386240,12.180566,4.364038,10.820595,8.632009,9.560711,48.041210
7.074398,7.295085,12.376719,4.370887,10.870820,8.402051,9.281883,48.091133
7.056494,7.272025,12.413210,4.377627,10.915550,8.380770,9.209549,48.054180
7.047288,7.325721,12.495465,4.400511,10.993467,8.346767,9.098147,47.852619
7.033736,7.416754,12.603203,4.437922,11.087393,8.220387,8.851007,47.627712
6.967296,7.386226,12.679747,4.458144,11.137822,8.140726,8.768167,47.256107
6.830797,7.353175,12.739110,4.475261,11.319079,8.041654,8.678681,46.732037
6.753173,7.331048,12.765283,4.421285,11.398987,7.948883,8.635779,46.399406
6.619133,7.254957,12.833224,4.306707,11.094570,7.709880,8.568128,45.985233
6.439230,7.407537,12.916276,4.146621,10.400112,7.379697,8.500912,45.350697
6.360714,7.516856,12.952493,4.076045,10.093948,7.228865,8.482668,45.093010
6.235711,7.710154,12.934733,3.948676,9.537586,6.933455,8.443275,44.841156
6.087047,7.981967,12.580131,3.763198,8.779600,6.593129,8.350867,44.755558
5.813608,8.336971,12.342300,3.579561,7.834291,6.324894,8.178832,44.203152
5.644043,8.636503,12.185378,3.466602,7.269553,6.148501,8.046497,43.744144
5.575221,8.769631,12.126904,3.410237,7.019408,6.034006,8.000825,43.347839
5.511901,8.869819,12.083150,3.361853,6.789262,5.928754,7.944209,43.039288
5.310285,9.125898,12.000368,3.233444,6.203468,5.645078,7.796975,42.662575
5.254036,9.200735,11.917045,3.216287,6.038562,5.555388,7.761277,42.717110
5.184336,9.289379,11.813558,3.200502,5.886841,5.462489,7.691236,42.715527
4.954732,9.544884,11.501900,3.253577,5.546581,5.226784,7.474078,42.930729
4.878889,9.616479,11.372370,3.296874,5.427920,5.120553,7.429327,42.832642
4.621920,9.657673,10.910041,3.497784,5.040864,4.789036,7.348663,42.213490
4.582187,9.601582,10.767476,3.576352,4.969591,4.756546,7.334709,42.113838
4.543081,9.507176,10.409823,3.734583,4.917731,4.700996,7.302934,42.085709
4.508720,9.464280,10.219326,3.804302,4.985466,4.710790,7.299019,42.078796
4.478918,9.366806,10.024421,3.868446,5.047213,4.717389,7.297940,42.082207
4.438940,9.199087,9.639218,3.919490,5.132715,4.761564,7.231639,42.107513
4.414563,9.187884,9.535764,3.888238,5.317634,4.836627,7.198242,42.218803
4.398518,9.236066,9.471723,3.880079,5.518542,4.902031,7.184314,42.336552
4.388768,9.280836,9.412802,3.879994,5.700737,4.961216,7.165483,42.442955
4.379798,9.350488,9.358593,3.858329,5.868364,5.015669,7.156447,42.571438
4.310978,9.637566,9.161194,3.856648,6.671339,5.392862,6.973652,43.178349
4.294897,9.681304,9.055308,3.995801,6.894871,5.491120,6.881442,43.170959
4.274431,9.721545,8.896018,4.155420,7.065080,5.599660,6.817519,42.978447
4.217362,9.770067,8.604750,4.593652,7.420917,5.809870,6.776670,42.560253
4.130421,9.826404,8.247485,5.331106,8.124116,6.157616,6.710762,42.079159
4.114841,9.842263,8.122731,5.625453,8.349342,6.266376,6.705555,41.940067
4.119724,9.847421,8.015195,5.888103,8.534220,6.316180,6.713013,41.873589
4.114913,9.790801,7.807434,6.379080,8.860808,6.456460,6.708395,41.968044
4.106570,9.771646,7.701101,6.631790,9.004789,6.522247,6.687153,42.053360
4.066109,9.855989,7.365682,7.277237,9.465618,6.746891,6.562850,42.080345
4.061037,9.895464,7.233641,7.461856,9.607953,6.811649,6.500529,42.075722
4.102541,10.014275,7.022086,7.832924,9.720819,6.890618,6.395267,42.042942
4.124383,10.090172,6.930583,8.018045,9.770579,6.925334,6.349400,41.947506
4.168908,10.343007,6.820094,8.646091,10.119267,7.006852,6.289477,41.723770
4.205419,10.448215,6.705677,9.439580,10.472044,7.087639,6.380464,41.797844
4.207824,10.495028,6.655234,9.828761,10.745843,7.126804,6.437486,41.905025
4.237958,10.657163,6.518905,10.622158,11.276057,7.355257,6.591670,41.903740
4.352754,10.920095,6.277066,11.531988,12.224438,7.811533,6.811544,41.874985
4.398130,10.960719,6.203084,11.788409,12.551582,7.949448,6.908059,41.974163
4.522227,11.023481,6.029946,12.539195,13.581805,8.313400,7.251934,42.267399
4.563471,11.000015,6.005454,12.777073,13.897516,8.428077,7.356090,42.345654
4.618215,10.982333,5.892922,13.273203,14.636476,8.643568,7.627759,42.672997
4.651616,11.006932,5.833277,13.509994,15.112232,8.793744,7.776329,42.874054
4.680068,11.003697,5.822922,13.808951,15.549949,9.000141,7.935546,43.130577
4.729829,11.040434,5.795134,14.350334,16.526701,9.393274,8.285920,43.520065
4.752654,11.135731,5.778332,14.629952,17.054379,9.563517,8.476232,43.565235
4.799590,11.443000,5.714540,15.875027,19.828300,10.474393,9.317754,43.934143
4.878244,11.613259,5.740633,16.554285,21.618362,11.075919,9.659842,44.336159
4.914855,11.701478,5.772186,16.855413,22.448433,11.380902,9.786295,44.513412
4.966781,11.782567,5.815048,17.155806,23.235342,11.661695,9.903717,44.628780
5.036692,12.116382,5.924146,18.730158,25.337589,12.328990,10.234664,44.437290
5.069226,12.236649,5.961285,19.275305,25.867609,12.518392,10.380176,44.389080
5.147296,12.540867,6.066034,20.324524,26.886211,12.865960,10.630979,44.412949
5.213235,12.919767,6.048414,21.215452,27.996998,13.102764,10.856614,44.785194
5.235922,13.025918,5.990423,21.595360,28.542215,13.194880,10.960963,44.958813
5.280702,13.246147,5.973019,22.612003,30.474270,13.527833,11.226250,45.780106
5.301581,13.278960,6.101409,23.307570,31.247627,13.606198,11.430353,45.874252
5.316759,13.281416,6.432720,23.916700,31.995422,13.642622,11.651088,45.941238
5.321284,13.308345,6.618139,24.102449,32.321564,13.631332,11.748416,45.986103
5.325447,13.333121,6.788734,24.247347,32.605713,13.620859,11.805613,46.073711
5.339786,13.387072,6.945689,24.323586,32.842541,13.591829,11.859645,46.181229
5.385516,13.505754,7.499973,24.623177,33.273827,13.620091,12.116908,46.630386
5.395063,13.673622,7.974747,24.659641,33.446327,13.612495,12.267970,46.873234
5.391868,13.797925,8.202352,24.655880,33.518425,13.584644,12.320994,46.902889
5.344934,14.242783,9.021934,24.554836,33.874969,13.526448,12.479902,46.574364
5.334373,14.298409,9.189257,24.524866,33.928677,13.504291,12.537170,46.626465
5.261744,14.457592,9.680366,24.396549,34.065365,13.475797,12.740093,47.590340
5.205137,14.563688,10.244080,24.166534,34.077454,13.451746,12.837970,48.229847
5.154554,14.560737,10.525249,23.937325,34.070438,13.434414,12.864839,48.525894
5.047115,14.448792,11.021940,23.333504,34.000431,13.400617,12.794951,48.889744
4.993475,14.357502,11.258084,23.030602,34.047943,13.443339,12.733053,48.916714
4.791830,14.058852,12.057338,22.142254,34.030464,13.293283,12.485633,48.938622
4.571564,13.710652,12.737678,21.629913,33.712395,13.116266,12.314814,48.741642
4.470538,13.544317,13.164119,21.391750,33.398239,13.050633,12.217368,48.737671
4.396696,13.378685,13.484671,21.102985,33.236027,13.051601,12.191967,49.257256
4.354298,13.293853,13.704637,20.965038,33.245628,13.068452,12.163106,49.490898
4.270137,13.143198,14.154639,20.590141,32.868900,13.044837,12.047769,49.750336
4.223770,12.966766,14.460691,20.100721,32.674000,12.890781,11.912479,49.992764
4.203367,12.857697,14.588637,19.887402,32.410595,12.821355,11.800671,50.062828
4.162013,12.483712,14.814655,19.351814,31.911186,12.670157,11.528605,50.250793
4.138871,12.323842,14.927587,19.039562,31.519842,12.545307,11.397398,50.265465
4.040495,12.022986,15.205063,18.087540,29.665867,12.056231,11.167863,50.103214
4.007114,11.990355,15.245460,17.752975,29.143728,11.869570,11.095132,49.973572
3.985491,11.960332,15.340128,17.429098,28.759535,11.757548,11.065476,49.860336
3.920980,11.878284,15.473324,16.608793,28.027046,11.573157,11.066762,49.693554
3.881516,11.743456,15.632263,15.427313,27.334892,11.409681,11.180425,49.923840
3.881988,11.688917,15.709094,14.849712,26.999264,11.316682,11.206368,50.044697
3.853044,11.496571,15.805675,13.746872,26.326914,11.159156,11.318184,50.271965
3.841887,11.332580,15.848253,13.260993,25.865482,11.080739,11.408340,50.245289
3.857329,11.185452,15.866503,12.813962,25.350700,11.020887,11.468493,50.243080
3.893662,10.896452,15.842907,11.993000,24.093641,10.927643,11.546725,50.077553
3.985819,10.556289,15.709486,10.870441,22.260075,10.681842,11.624840,49.998756
4.054966,10.406458,15.417357,10.027749,21.233843,10.523045,11.692394,50.055328
4.120275,10.282406,15.255085,9.636441,20.703352,10.444427,11.762845,50.102535
4.196126,10.209718,15.132915,9.282090,20.263031,10.381713,11.824535,50.166943
4.290362,10.142843,15.048457,8.933389,19.857918,10.331812,11.872723,50.203526
4.474693,9.974065,15.090962,8.309355,19.404215,10.165515,11.955805,50.261879
4.668584,9.813398,15.090122,7.763242,19.016657,10.019617,11.923869,50.508625
4.756622,9.717493,15.054576,7.529312,18.921930,9.974565,11.899879,50.718834
4.892280,9.432222,14.925530,7.116066,18.768744,9.907465,11.850345,50.999798
5.021754,9.086129,14.780796,6.757294,18.620436,9.819240,12.006701,51.355614
5.416965,8.641299,14.765838,6.360157,18.397589,9.684161,12.337125,52.382870
5.575133,8.493135,14.773103,6.266855,18.334854,9.643858,12.417487,52.473667
5.876236,8.307961,14.775766,6.102033,18.224031,9.548949,12.510975,52.382530
6.115628,8.092896,14.567581,5.950937,18.056192,9.468277,12.567902,52.198730
6.223488,8.002080,14.437503,5.885795,17.929457,9.441181,12.587153,52.037663
6.459049,7.909353,14.217108,5.764223,18.004498,9.541411,12.602191,51.997986
6.639411,7.879250,13.980105,5.684964,17.755980,9.560364,12.596936,52.209152
6.715189,7.858204,13.821812,5.663802,17.646414,9.566941,12.614758,52.452084
6.927564,8.075644,13.133260,5.327633,17.238024,9.496919,12.641220,52.811623
6.965544,8.111541,12.919967,5.203410,17.140852,9.453625,12.643780,52.854858
7.038178,8.209971,12.608441,5.006232,16.963675,9.343115,12.561323,53.019638
7.132773,8.370955,12.057473,4.852518,16.268921,9.061563,12.401856,52.816326
7.161318,8.495418,11.859066,4.821130,16.057350,8.993879,12.360675,52.582783
7.227105,8.943696,11.429385,4.909303,15.471354,8.774467,12.263289,51.602665
7.280429,9.412224,11.239440,4.986467,15.442192,8.753266,12.215554,50.912514
7.324354,9.664767,11.142412,5.032264,15.401703,8.739178,12.182802,50.544025
7.401232,10.078390,10.951978,5.074772,15.367001,8.715958,12.105217,50.031898
7.507296,10.274807,10.678412,5.075717,14.895082,8.484342,11.885165,49.629120
7.590537,10.379892,10.644114,5.112219,14.353212,8.216429,11.679097,49.727676
7.632553,10.478125,10.976230,5.252252,13.860140,7.993515,11.360125,49.366302
7.621202,10.530778,11.161162,5.324574,13.642763,7.892782,11.194927,49.128918
7.614834,10.579222,11.331307,5.391114,13.441281,7.806472,11.019959,48.808273
7.560775,10.715127,11.764385,5.541046,12.932131,7.466900,10.498969,47.793446
7.490546,10.770413,11.992579,5.622161,12.603629,7.227773,10.240929,47.108498
7.470163,10.801975,12.090360,5.657923,12.431540,7.125710,10.154272,46.790897
7.409717,10.838260,12.233150,5.720840,12.075336,6.945414,9.957405,46.404839
7.359986,10.833754,12.366872,5.774098,11.773817,6.812206,9.750540,46.190205
7.111887,10.850703,12.293074,5.739511,11.021750,6.827431,9.293184,45.880707
6.942683,10.892363,12.097264,5.667395,10.504821,6.870899,9.105783,45.545086
6.878892,10.921195,11.954274,5.602624,10.267862,6.835609,9.050874,45.395691
6.775424,11.017506,11.689187,5.479572,9.733067,6.789665,9.034217,45.305756
6.739151,11.083069,11.662841,5.425323,9.483143,6.769042,9.027836,45.375179
6.686216,11.225103,11.631536,5.409973,9.122732,6.748774,8.831063,45.643745
6.544657,11.468690,11.541553,5.389010,8.789194,6.740502,8.633410,45.386494
6.432635,11.572779,11.493526,5.379132,8.642149,6.734681,8.513242,45.144207
6.062424,11.883402,11.197283,5.349613,8.162509,6.761090,8.209495,44.673950
6.011279,11.916649,11.067354,5.342518,8.067205,6.785952,8.172374,44.735138
5.906102,12.017694,10.844748,5.350725,7.780257,6.762753,8.254461,44.707527
5.833833,12.268638,10.644647,5.388973,7.291507,6.608737,8.424737,44.597111
5.806372,12.350393,10.540394,5.372586,7.076034,6.529980,8.515981,44.480186
5.759540,12.405890,10.373947,5.337635,6.695395,6.393463,8.643248,44.324654
5.701107,12.290686,10.292605,5.287046,6.215750,6.215526,8.812871,44.601501
5.704301,12.290633,10.335081,5.272805,6.087696,6.176489,8.845528,44.683743
5.691379,12.226797,10.362724,5.225382,5.861485,6.111805,8.939850,44.751709
5.696977,12.184327,10.365923,5.128219,5.670002,6.082743,9.042018,44.975761
5.700960,12.117291,10.412822,5.086112,5.585583,6.101577,9.120413,45.219700
5.749745,11.746892,10.625708,4.963797,5.538459,6.128898,9.468290,46.001209
5.777183,11.628588,10.652039,4.890925,5.381046,6.094681,9.569118,46.309898
5.822510,11.274601,10.721564,4.768644,4.957624,6.013093,9.880412,47.237312
5.822262,11.061923,10.752214,4.702956,4.753405,5.999557,10.036597,47.652420
5.822034,10.885465,10.780415,4.642519,4.546337,5.991298,10.153884,47.839390
5.820471,10.749775,10.806361,4.586916,4.355824,5.986074,10.269253,48.179085
5.768862,10.359288,10.800439,4.553887,3.748709,5.985181,10.838987,48.099346
5.753529,10.267462,10.437362,4.476336,3.716375,6.165416,11.166571,48.238083
5.747062,10.220510,10.179861,4.436188,3.750987,6.260482,11.341412,48.370365
5.747202,10.156812,9.914239,4.382628,3.782830,6.360534,11.507362,48.485809
5.752520,10.098205,9.669853,4.334211,3.812128,6.454410,11.660045,48.611401
5.797073,10.023770,9.130768,4.276357,3.952308,6.732834,12.046135,49.341503
5.826842,10.009120,9.005858,4.276298,3.994087,6.817174,12.171313,49.643494
5.879165,9.942837,8.856027,4.515381,4.067892,6.973294,12.365248,50.191601
5.895919,9.916649,8.833822,4.925775,4.103068,7.069120,12.489139,50.276180
5.906272,9.907546,8.813393,5.331460,4.135433,7.162351,12.586338,50.167812
5.937118,9.993746,8.761148,6.443869,4.461980,7.363848,12.833838,50.220814
5.967597,10.098968,8.742486,7.045136,4.853489,7.366273,13.000607,50.639156
5.999035,10.295480,8.731507,7.535646,5.316282,7.518898,13.180660,51.167824
6.022665,10.492157,8.725240,7.760846,5.526677,7.588963,13.253557,51.389717
6.040234,10.710388,8.714391,7.968040,5.711188,7.667991,13.317129,51.495808
6.037834,10.932611,8.713553,8.156312,5.874016,7.728426,13.339268,51.517071
6.023056,11.437199,8.534760,8.981190,6.230126,7.977928,13.460569,51.445602
6.032451,11.542651,8.448429,9.218725,6.293123,8.048764,13.525237,51.398792
6.045945,11.661978,8.283761,9.777222,6.404407,8.159698,13.582030,51.561718
6.030680,11.831022,8.120389,10.674681,7.074900,8.646513,13.707771,52.170265
6.005151,11.896255,8.112624,10.953550,7.402997,8.805223,13.730872,52.174183
5.903692,12.105312,8.149010,11.936078,8.453942,9.175432,13.737698,52.393448
5.867086,12.114201,8.208499,12.294682,8.798675,9.253636,13.663528,52.635799
5.774312,12.081298,8.491982,13.446280,9.407654,9.449807,13.599638,52.894253
5.700044,12.172070,8.884536,14.670837,10.048728,9.877842,13.592584,53.051956
5.671174,12.237227,9.111035,15.282609,10.391829,10.083332,13.579767,52.943539
5.615779,12.402054,9.551746,16.389299,11.605820,10.471054,13.541281,52.560253
5.486063,12.574756,10.122569,17.859022,14.149404,10.968446,13.563579,52.722336
5.317802,12.887630,10.625351,20.137722,17.688684,11.644978,13.612711,52.327946
5.226714,13.093706,10.703032,21.550463,19.494978,12.003344,13.598956,52.194477
5.193015,13.204786,10.726260,22.193695,20.523130,12.277349,13.607815,52.148907
5.127901,13.328769,10.755310,23.373646,22.339388,12.812925,13.615460,51.742279
5.069341,13.480124,10.768871,24.787506,23.964428,13.251497,13.507357,51.018368
5.057608,13.548237,10.774851,25.486967,24.756371,13.422445,13.459803,50.752903
5.014257,13.621593,10.795511,26.824820,26.657248,13.940206,13.405868,50.331192
4.955369,13.711961,10.818625,28.040678,28.848854,14.395123,13.282833,49.993008
4.942313,13.735429,10.812719,28.656706,29.911016,14.593493,13.250213,49.899723
4.859694,13.882319,10.944914,30.985714,33.641365,14.991140,13.136748,49.372562
4.841867,13.931704,11.000757,31.512102,34.518463,15.151452,13.181767,49.424263
4.838383,13.964699,11.082202,32.085804,35.465122,15.313586,13.286397,49.504459
4.825390,14.066975,11.388047,33.755745,37.930000,15.809235,13.670792,49.868217
4.849367,14.154700,11.458197,34.260159,38.687149,15.965482,13.765383,50.125233
4.882347,14.238818,11.522738,34.543816,39.383755,16.108568,13.879489,50.427734
5.025947,14.507280,11.596419,35.507389,42.238441,16.763765,14.265962,52.057964
5.131964,14.474021,11.731909,36.143463,43.262012,17.047184,14.448679,52.573154
5.171316,14.439708,11.815948,36.439888,43.594975,17.169846,14.518187,52.828880
5.378107,14.093102,12.011484,37.254761,44.556118,17.284132,14.743715,53.698719
5.519657,13.727271,12.156550,37.779774,45.238190,17.592207,14.879482,54.227051
5.672432,13.425776,12.258375,38.054874,45.971416,17.899954,15.053907,54.639366
5.728372,13.275901,12.304373,38.225883,46.370487,18.083147,15.127939,54.808037
5.778550,13.139985,12.424347,38.486797,46.737652,18.244848,15.161493,54.953850
5.892949,12.786088,12.736015,38.881439,47.790218,18.748970,15.270342,54.906807
5.927101,12.654226,12.788924,38.948040,47.899803,18.795925,15.305273,54.807251
5.956249,12.549042,12.837604,39.028549,47.910275,18.823305,15.339076,54.710514
6.056025,12.202536,12.967067,39.278416,47.842304,18.901293,15.419250,54.439030
6.189770,12.079056,12.933375,38.909630,47.546913,18.967241,15.424481,53.424171
6.275753,11.883614,12.775188,38.131275,47.384254,18.856302,15.281420,52.720005
6.319464,11.764597,12.689590,37.726139,47.311104,18.755459,15.226080,52.492069
6.415245,11.484804,12.378054,36.928169,46.852974,18.582417,15.225436,52.163170
6.461208,11.380610,12.193431,36.570950,46.349724,18.518051,15.259304,52.043324
6.503496,11.284095,11.965505,36.204708,45.717834,18.458832,15.257451,51.765480
6.564918,11.159986,11.562865,35.541763,44.256699,18.337641,15.298859,51.088608
6.628334,11.133656,11.245026,34.939991,42.721939,18.174150,15.373103,50.532959
6.677707,11.079416,11.077617,34.533005,42.005447,18.073168,15.371175,50.168831
6.815864,10.826167,10.465754,32.217583,38.369614,17.353556,15.177131,48.766266
6.830790,10.805596,10.349709,31.719498,37.511536,17.110228,15.092983,48.594830
6.833835,10.802011,10.275661,31.201277,36.744907,16.900600,15.012760,48.428528
6.849895,10.798028,10.144853,29.936901,35.396751,16.527519,14.931827,48.371773
6.864291,10.785322,10.087185,29.321280,34.771790,16.368021,14.968460,48.381348
6.902235,10.827527,10.057896,28.131531,33.230453,15.913461,15.021874,48.296909
6.927347,10.866396,10.042053,27.536579,32.311741,15.703129,15.066926,48.222675
6.944925,10.859007,10.027476,26.961590,31.345518,15.511772,15.084102,48.246399
6.968944,10.892544,10.004209,25.190647,28.536749,14.967345,15.095017,48.096523
6.969017,11.014791,9.854123,23.955370,26.635515,14.609318,14.934448,47.847469
6.972090,11.089102,9.827707,23.410776,25.728256,14.373056,14.857802,47.637062
6.942088,11.193404,9.772021,22.296396,23.809259,13.876669,14.588394,47.106472
6.918375,11.200624,9.722680,21.719004,22.973156,13.633432,14.412861,46.884834
6.903167,11.208677,9.663235,21.132227,22.143919,13.409643,14.259439,46.625626
6.766713,11.135668,9.463142,19.549543,19.804979,12.693346,13.807538,46.023399
6.716503,11.102997,9.457670,18.918486,19.041376,12.438180,13.668279,45.743282
6.605294,11.082881,9.533465,17.553524,17.703690,12.024945,13.458167,45.083500
6.485036,11.173576,9.464858,16.270592,16.489391,11.656929,13.207771,44.374676
6.322030,11.256787,9.694221,15.234680,15.473661,11.342257,12.945429,43.606548
6.105193,11.348129,9.959405,14.310395,14.518523,11.059833,12.719112,42.730652
5.991602,11.355463,10.058915,13.866302,14.098809,10.832464,12.589823,42.382462
5.790623,11.398827,10.228807,13.081796,13.128152,10.350685,12.301824,41.700710
5.611670,11.463989,10.344246,12.213003,12.289404,9.871060,12.021474,41.120911
5.525034,11.498490,10.374510,11.694175,11.932177,9.652518,11.903839,40.804958
5.376265,11.549706,10.480755,10.777651,11.267837,9.205121,11.710663,40.389561
5.339758,11.608948,10.637334,9.992233,10.863936,8.773132,11.513395,40.618538
5.364687,11.630834,10.760991,9.604944,10.971402,8.642994,11.434124,40.814022
5.382426,11.735680,10.976757,8.445001,11.607033,8.499912,11.323770,41.155499
5.409310,11.744658,11.157352,7.855513,12.264837,8.520336,11.261410,41.791458
5.427376,11.732697,11.225115,7.631370,12.664822,8.636935,11.253832,42.157459
5.476462,11.711127,11.329233,7.039846,13.638130,8.835059,11.241565,43.688141
5.497947,11.722984,11.348709,6.859914,13.908078,8.880225,11.227477,44.261719
5.543190,11.712364,11.383114,6.585366,14.410111,8.899304,11.065847,45.477966
5.627888,11.807391,11.435299,6.355774,14.858224,8.907735,11.003484,46.583817
5.703323,11.829490,11.511134,6.254554,15.090096,8.899794,10.921170,47.122089
5.893065,11.824286,11.689451,6.005794,15.713164,8.957568,10.750733,48.045017
6.242106,11.811564,11.998090,6.512795,18.137846,9.407354,10.558085,49.942562
6.376198,11.737690,12.121486,6.820751,19.491543,9.702158,10.544195,50.671772
6.513880,11.581580,12.164489,7.088045,20.516500,9.951751,10.631791,51.347103
6.572947,11.499354,12.189334,7.179934,20.874640,10.089822,10.646166,51.481869
6.651155,11.346545,12.218332,7.331697,21.474997,10.288632,10.534891,51.803146
6.712456,11.201366,12.235125,7.460162,21.948605,10.438744,10.366813,52.140293
6.767688,11.213161,12.242528,7.564558,22.164413,10.510016,10.306519,52.237690
6.830267,11.234616,12.249339,7.693424,22.362968,10.579444,10.253047,52.273140
6.975690,11.214744,12.197286,8.004942,22.868351,10.717115,10.150153,52.433178
7.003370,11.113272,12.122333,8.173321,23.157526,10.791464,10.088332,52.400845
7.029965,10.956116,11.781767,8.292042,23.500305,10.889076,10.003613,52.097908
7.065986,10.856246,11.661041,8.329702,23.673422,10.945596,10.022557,51.663864
7.094707,10.803012,11.635217,8.344796,23.749744,10.969608,10.019324,51.460629
7.167861,10.708024,11.544318,8.375242,23.825863,11.012200,9.942985,51.097404
7.256309,10.728030,11.419580,8.390478,23.863451,10.994946,9.920647,51.017319
7.326754,10.761157,11.283670,8.401787,23.895397,10.990760,9.902246,51.110218
7.509397,10.757292,10.824495,8.392602,23.958475,11.009338,9.898300,51.136749
7.563789,10.791449,10.494447,8.351407,23.964586,11.017147,9.891846,51.187805
7.754052,10.784626,9.438460,8.151145,23.888195,10.923759,9.821645,51.523998
7.809788,10.763909,9.250257,8.108605,23.865107,10.892564,9.836658,51.595425
7.897980,10.682026,8.917790,8.055833,23.736217,10.790284,9.865797,51.770409
7.935105,10.657120,8.705229,8.043289,23.630518,10.723961,9.871536,51.859005
7.970980,10.670627,8.475783,8.031749,23.533266,10.660476,9.887236,51.968601
8.084695,10.796440,8.035748,8.004948,23.284786,10.514042,9.937337,51.970146
8.074185,10.871738,7.584812,7.927345,22.610287,10.311044,10.094316,51.518795
8.065815,10.879196,7.363718,7.923129,22.116987,10.153684,10.140195,51.314919
8.081869,10.888109,6.991192,7.912170,21.105927,9.784514,10.255594,51.184166
7.993148,10.865902,6.669644,7.844378,19.356733,9.113419,10.378357,50.451916
7.929987,10.892430,6.619090,7.773506,18.240717,8.631341,10.467676,50.024467
7.839797,10.901190,6.627664,7.739953,17.251356,8.241149,10.541751,49.630657
7.786940,10.984998,6.643374,7.727839,16.815460,8.070657,10.576271,49.434628
7.654728,11.089879,6.671128,7.705759,15.997126,7.778486,10.567107,48.962811
7.484440,11.102519,6.612999,7.687068,15.270103,7.522118,10.540247,48.480995
7.387131,11.102684,6.535265,7.678828,14.933142,7.407256,10.522773,48.217209
7.269402,11.098488,6.458023,7.626496,14.409662,7.217509,10.517760,47.983509
6.944627,11.240923,6.274453,6.855786,12.496269,6.640790,10.543061,47.753147
6.750422,11.518591,6.150327,6.272091,10.770402,6.163635,10.511079,47.712334
6.591938,11.784370,6.042423,5.766077,9.309487,5.743103,10.415884,47.653328
6.526951,11.897319,5.993495,5.538364,8.665421,5.519986,10.345099,47.536709
6.467160,12.022128,5.942592,5.328858,8.072850,5.299915,10.265293,47.478432
6.369258,12.217287,5.824499,4.958760,7.026058,4.939805,10.147475,47.476868
6.294368,12.308404,5.773160,4.647882,6.439920,4.701528,10.080948,47.737900
6.240070,12.273199,5.750527,4.463066,6.202088,4.603631,10.061499,47.823376
6.121564,12.167871,5.795784,4.109247,5.781951,4.427280,10.002951,47.939873
6.029434,12.103781,5.837217,3.845368,5.426312,4.281670,9.953192,48.083939
5.959322,11.946978,5.906798,3.523524,4.969484,4.068792,10.015911,48.586334
5.939369,11.910980,5.935905,3.432922,4.840883,4.022034,10.034039,48.743103
5.930830,11.895236,5.965104,3.326411,4.692446,3.986357,10.044262,49.137383
5.891293,11.880072,5.967329,3.279454,4.627005,3.981392,10.076617,49.205799
5.849851,11.866117,5.945375,3.228112,4.566796,3.980711,10.128377,49.225723
5.752512,11.861652,5.899051,3.422109,4.464138,4.012619,10.252304,49.440422
5.602029,11.685115,5.867404,3.641482,4.320580,4.024492,10.361629,49.404514
5.537575,11.569050,5.853452,3.738196,4.257290,4.029833,10.406122,49.370930
5.341876,11.400830,5.872952,3.990602,4.096198,4.041832,10.482484,49.265739
5.302657,11.381637,5.878442,4.065639,4.050848,4.066752,10.510524,49.191044
5.220783,11.306425,5.930587,4.237183,3.970738,4.145666,10.616542,49.018749
5.082966,11.422729,6.007646,5.013584,3.886318,4.279248,10.730710,48.965126
5.048025,11.520670,6.068025,5.234230,3.871039,4.319811,10.784710,49.054596
4.920171,11.587281,6.221708,5.795844,3.945101,4.498244,10.911855,49.474628
4.797911,11.583686,6.308421,6.306001,3.978971,4.655487,10.877865,49.982822
4.742411,11.581978,6.340611,6.758282,4.068828,4.771741,10.820510,50.264236
4.651993,11.609289,6.388400,7.578725,4.301628,5.035570,10.690294,50.669426
4.577906,11.644229,6.401728,8.381099,4.569798,5.278986,10.611197,50.862206
4.549957,11.565139,6.030365,9.452619,4.962974,5.599712,10.575375,51.534462
4.546035,11.502771,5.835406,10.062187,5.256522,5.803151,10.563195,51.715691
4.550667,11.503340,5.734638,10.324327,5.385358,5.880039,10.546705,51.795368
4.554930,11.428542,5.641927,10.539783,5.503893,5.980332,10.546538,51.826675
4.587925,11.260501,5.478151,10.953984,5.781790,6.206998,10.599601,51.785648
4.661433,11.156921,5.335081,11.546124,6.150524,6.617531,10.696109,51.680058
4.678616,11.113297,5.293859,11.852117,6.365888,6.884713,10.745449,51.624737
4.688386,10.950820,5.253509,12.392662,6.808105,7.359746,10.818380,51.791225
4.700890,10.898976,5.235721,12.661234,7.003064,7.582694,10.876895,51.798733
4.749806,10.220442,5.209768,13.992094,8.096717,8.494596,11.299620,51.595840
4.740676,9.986055,5.204504,14.403596,8.440012,8.826042,11.522807,51.520866
4.732341,9.870253,5.208308,14.591070,8.591360,8.970455,11.608293,51.464577
4.704479,9.722572,5.173107,14.947805,8.809362,9.202874,11.773377,51.155228
4.702751,9.758588,5.143767,15.176578,8.787412,9.281889,11.825042,51.097950
4.680379,9.904803,5.055108,15.845203,9.257366,9.487226,11.896487,51.078865
4.680051,10.059630,4.980469,16.779205,9.910460,9.686153,11.922890,51.195030
4.672810,10.128048,4.964210,17.208725,10.198386,9.784594,11.919038,51.229969
4.663444,10.190997,4.949250,17.658268,10.463293,9.875162,11.875535,51.225689
4.651967,10.373569,5.001705,19.077650,12.255167,10.130355,11.814777,51.567760
4.632172,10.419621,5.038702,19.537582,13.045165,10.239768,11.826903,51.714146
4.632283,10.568501,5.078768,20.790424,15.349854,10.627207,11.839090,51.909046
4.654420,10.641135,5.088342,21.220869,17.062128,11.013356,11.861502,51.976559
4.651743,10.677974,5.088348,21.380100,17.859255,11.313723,11.855844,52.069466
4.690945,10.792248,5.088359,22.003601,19.603691,11.955384,11.885448,52.115444
4.715238,10.880885,5.074992,22.405365,20.446566,12.249645,11.933353,52.112309
4.803517,10.879190,5.064240,23.311298,22.314318,12.760933,12.102004,52.131969
4.856165,10.882012,5.123591,23.804714,23.346132,13.013037,12.220839,52.245129
4.975041,10.886996,5.205550,24.786661,25.632294,13.618412,12.413125,52.273239
5.030552,10.891026,5.199885,25.058981,26.723597,13.909336,12.531419,52.444500
5.134913,10.710793,5.208784,25.533461,28.645096,14.558128,12.770573,52.613075
5.177280,10.593411,5.175760,25.894686,29.504665,14.963816,12.859557,52.645725
5.358330,10.418294,5.175969,27.028400,32.019341,16.024006,13.132418,52.330372
5.481432,10.424379,5.198108,27.649958,32.930870,16.331322,13.208848,52.088734
5.886442,10.410392,5.245212,28.397396,34.613930,16.831438,13.451914,51.853870
6.251568,10.356332,5.380793,28.945116,36.047241,17.380520,13.731402,51.649853
6.436504,10.318282,5.532398,29.179821,36.779724,17.763870,13.908885,51.620613
7.089645,10.527186,6.194887,30.007191,39.574360,18.968033,14.301463,51.687714
7.230153,10.572953,6.298034,30.200407,40.101143,19.241846,14.372198,51.643848
7.471103,10.628327,6.562142,30.563166,41.319580,19.710419,14.560656,51.433918
7.573851,10.628941,6.703190,30.878592,41.946423,19.941355,14.633861,51.305664
7.737502,10.635295,6.978545,31.505604,43.055214,20.344973,14.733299,51.171082
7.834701,10.581148,7.332391,31.794828,43.926167,20.467966,14.846594,51.035465
7.875526,10.565823,7.472675,31.877399,44.283600,20.470482,14.903561,51.019936
7.913301,10.552173,7.584831,31.953369,44.628498,20.497999,14.937004,50.831890
8.003126,10.536461,7.870495,32.169800,45.237774,20.533867,15.037965,50.109760
8.104544,10.451656,8.422070,32.237034,45.789387,20.541693,15.093995,49.029690
8.163171,10.503617,8.794742,32.258320,46.083046,20.538815,15.168965,48.527210
8.171028,10.533555,8.965650,32.277542,46.224728,20.561172,15.175017,48.296719
8.185499,10.561097,9.121540,32.317326,46.376724,20.563650,15.177651,48.060921
8.242169,10.675121,9.423856,32.411304,46.609604,20.564568,15.182305,47.805588
8.329111,10.730828,9.755280,32.439056,46.773960,20.600939,15.235370,47.478779
8.381136,10.676354,9.952895,32.412617,46.666065,20.592566,15.300694,47.328320
8.474668,10.541220,10.364623,31.987764,46.146973,20.542942,15.465679,46.971874
8.510813,10.447279,10.504886,31.688883,45.910164,20.515903,15.541414,46.791611
8.583820,10.297662,10.752665,31.128075,45.510521,20.448400,15.670469,46.670536
8.668789,10.285489,11.037668,30.183571,44.196323,20.398447,15.712805,46.513889
8.703263,10.360629,11.123158,29.866507,43.529552,20.335943,15.691640,46.385944
8.766346,10.609765,11.338849,29.031706,41.538528,20.086613,15.541966,46.292793
8.774841,10.702413,11.421887,28.790129,40.815639,19.949543,15.466187,46.196728
8.766739,10.775777,11.517515,28.567865,40.058689,19.733803,15.391781,45.995956
8.761337,10.863114,11.625675,28.408148,39.362259,19.451214,15.335148,45.898643
8.713131,11.011867,12.001867,27.381641,37.073246,18.595156,15.064209,45.727837
8.558002,11.127286,12.372681,25.969349,34.585747,17.858059,14.626697,45.603775
8.476845,11.144012,12.507369,25.432072,33.684887,17.569897,14.453639,45.570034
8.326523,11.218751,12.758018,24.465389,31.786577,16.965572,14.089811,45.213612
8.256023,11.238029,12.865267,24.002565,30.994555,16.668858,13.893641,45.085529
8.109784,11.382340,13.154766,22.483400,28.892996,15.678668,13.312140,45.146996
8.076923,11.434909,13.242250,21.999836,28.096994,15.353107,13.096566,45.342400
7.970139,11.427577,13.431984,20.632690,26.533348,14.740263,12.764519,45.621380
7.677309,11.507195,13.600136,19.153614,24.912401,14.189797,12.407123,45.908142
7.529127,11.548533,13.668699,18.460829,24.129105,13.936356,12.232768,46.097729
7.229187,11.657606,13.632807,17.141371,22.584118,13.042663,11.917414,46.646030
6.769486,11.623124,13.387158,15.320986,20.927164,12.013312,11.538444,47.152313
6.476676,11.629529,13.185544,14.234099,20.628317,11.499645,11.414535,47.336315
6.237426,11.776169,13.019667,13.300589,20.217112,11.093625,11.234406,47.614990
6.143839,11.871115,12.923573,12.733418,19.982882,10.879383,11.162400,47.824306
6.057735,11.960335,12.847322,12.167759,19.761229,10.660251,11.088886,48.017883
5.859214,12.195685,12.518934,10.786909,19.734577,10.260170,10.793365,48.769524
5.827815,12.244625,12.406940,10.407579,19.923899,10.152637,10.686181,49.126686
5.798712,12.344944,12.311057,10.059080,20.056002,10.043171,10.587564,49.536201
5.718750,12.558998,11.988331,8.999316,20.450304,9.761362,10.230951,51.018826
5.688794,12.803397,11.853739,8.154289,21.434752,9.633100,9.823945,52.344028
5.729706,12.923593,11.802153,7.685532,21.990240,9.514743,9.651039,53.290348
5.746570,13.017999,11.823221,7.454742,22.402046,9.456779,9.609736,53.744175
5.840110,13.104515,11.910515,7.027658,23.387323,9.430647,9.543645,54.583496
5.934361,13.156972,11.963531,6.629622,24.360668,9.414202,9.454692,55.560913
5.958863,13.177999,11.932669,6.472728,24.889818,9.403155,9.372642,55.952309
5.983984,13.252778,11.905092,6.336442,25.376659,9.397954,9.278883,56.419262
6.062932,13.612629,11.875381,6.032970,26.519888,9.384713,9.041345,57.514610
6.093878,13.760213,11.875503,5.942490,26.823044,9.405522,8.986999,57.632515
6.171699,13.885636,11.713190,5.552994,27.441126,9.315241,8.931200,57.437714
6.186642,13.858444,11.657375,5.460040,27.544672,9.270432,8.932059,57.335049
6.201071,13.827835,11.565428,5.256392,27.765509,9.227384,8.918660,57.234638
6.209610,13.800418,11.505301,5.160108,27.828184,9.214658,8.922726,57.249447
6.227652,13.776713,11.430755,5.073121,27.885851,9.229948,8.924692,57.260284
6.276231,13.802781,11.293966,4.861165,28.073616,9.223343,8.915156,57.125957
6.356992,13.842402,11.165788,4.681748,28.192108,9.181509,8.962482,57.027752
6.392384,13.833295,11.086174,4.602649,28.245085,9.162185,8.989120,57.010685
6.461459,13.844286,10.930281,4.471536,28.236092,9.089345,9.042768,56.826153
6.552316,13.958074,10.590442,4.323046,28.081757,9.050190,9.216048,56.559219
6.568266,14.049522,10.494168,4.281245,28.010090,9.049077,9.293738,56.436516
6.571290,14.099196,10.405592,4.255134,27.944153,9.023695,9.376584,56.188141
6.584247,14.214563,10.279323,4.213580,27.989986,8.945971,9.563219,55.973450
6.557298,14.392395,10.100906,4.167194,28.144688,8.852768,9.720893,55.665894
6.512904,14.444365,9.887894,4.095891,28.271593,8.762127,9.843132,55.369347
6.477987,14.447708,9.793983,4.064456,28.300339,8.721256,9.881027,55.041954
6.418479,14.499314,9.615454,4.019167,28.351122,8.660769,9.980319,54.242882
6.391723,14.508347,9.530980,4.018240,28.373508,8.634103,9.988462,53.709381
6.291894,14.602388,9.702659,4.120873,27.225782,8.416267,9.948141,51.985775
6.271721,14.580979,9.742896,4.131952,26.673054,8.309155,9.917374,51.809650
6.265012,14.565878,9.722540,4.136838,26.164518,8.206737,9.901795,51.645870
6.252041,14.515749,9.697011,4.148104,25.696644,8.121651,9.895926,51.582546
6.219773,14.392139,9.623113,4.152377,24.535336,7.856432,9.864744,51.209045
6.217767,14.361738,9.586928,4.118995,24.015568,7.731426,9.858322,51.127522
6.200972,14.333766,9.553636,4.095824,23.537357,7.586256,9.867137,50.902138
6.188623,14.346504,9.604349,4.056780,22.370131,7.315052,9.889957,50.222443
6.176519,14.406113,9.632153,4.039327,21.843832,7.188417,9.876646,49.957333
6.087705,14.545593,9.304826,4.045979,19.616949,6.726062,9.799929,48.391830
6.044628,14.537224,9.182340,4.043089,19.022060,6.608802,9.778193,47.958347
5.955070,14.482464,8.916082,4.037985,17.977983,6.395222,9.757789,46.981632
5.929781,14.422448,8.772769,4.042543,17.324360,6.288900,9.775630,46.662582
5.878899,14.367229,8.619006,4.046232,16.662771,6.156096,9.792045,46.417847
5.582484,14.124604,8.150627,4.076508,14.573690,5.732573,9.798603,45.526585
5.396607,14.036284,7.905774,3.917657,13.260839,5.490217,9.818472,44.740135
5.308720,13.966465,7.808478,3.842860,12.678203,5.393019,9.836626,44.413151
5.076592,13.779368,7.506246,3.608954,11.195205,5.183084,9.912377,43.750759
4.975141,13.688780,7.376815,3.466433,10.400836,5.035233,9.963902,43.612423
4.886730,13.667708,7.300765,3.328547,9.728416,4.929419,9.939686,43.562389
4.870278,13.610445,7.267237,3.259496,9.431969,4.880705,9.970834,43.629303
4.861252,13.464095,7.201357,3.130694,8.891074,4.768318,9.987262,43.602474
4.850314,13.345200,7.139472,3.110113,8.475657,4.679206,9.988283,43.253658
4.793143,13.118825,7.132657,3.096262,8.038112,4.617489,9.989558,42.803818
4.774953,13.045550,7.080168,3.096374,7.845212,4.589596,10.006926,42.606384
4.759111,12.951241,7.031876,3.104319,7.666197,4.563932,10.023046,42.444931
4.748234,12.721189,6.975128,3.170988,7.165182,4.561423,10.122214,42.259155
4.755264,12.461694,6.929792,3.207687,6.729693,4.483855,10.083045,41.944698
4.773244,12.231049,6.964797,3.223431,6.453971,4.402772,10.003966,41.793419
