2.555581,15.427354,2.448341,2.151206,8.681359,5.962969,3.417783,19.566149
2.599074,15.407083,2.334502,2.098557,8.364236,5.798689,3.326753,19.774858
2.608378,15.377554,2.326443,2.076863,8.267376,5.760537,3.276349,19.637173
2.645561,15.240587,2.325928,1.919166,8.011901,5.663540,3.146326,19.244062
2.624350,15.070768,2.352138,1.783501,7.790355,5.616964,3.045885,19.055904
2.611378,15.009706,2.366305,1.710308,7.670608,5.532774,2.986333,18.950220
2.582876,15.416888,2.458922,1.597513,7.310933,5.380104,2.931558,18.640860
2.562230,15.554414,2.506972,1.569602,7.181630,5.296315,2.911372,18.486311
2.519613,15.806270,2.609222,1.520298,6.953215,5.249526,2.891534,18.189173
2.453667,16.332991,2.802529,1.421652,6.484476,5.200118,2.869750,17.941828
2.417580,16.502346,2.877800,1.366068,6.308488,5.145857,2.877017,18.006157
2.366993,16.471645,2.865008,1.327011,6.159006,5.067759,2.881192,18.068800
2.336584,16.435925,2.863360,1.313622,6.093104,4.995830,2.886864,18.209488
2.279800,16.417400,2.860448,1.294084,5.976688,4.882222,2.917725,18.445192
2.231055,16.405317,2.862458,1.282587,5.847558,4.804153,2.944410,18.514071
2.219885,16.363440,2.865489,1.273881,5.775972,4.769735,2.956519,18.565123
2.202457,16.306074,2.997670,1.258502,5.672917,4.755758,2.977912,18.647787
2.195550,16.214380,3.157299,1.233201,5.609426,4.733415,3.022098,18.710766
2.143750,15.820082,3.443906,1.227161,5.403702,4.670706,3.077606,18.865955
2.116360,15.542070,3.541110,1.235294,5.285982,4.660143,3.065785,18.825310
2.111659,15.393664,3.583964,1.215281,5.211767,4.638963,3.062957,18.831776
2.112070,15.006544,3.658305,1.156269,5.125496,4.579314,3.081008,18.689533
2.101978,14.784099,3.673239,1.152679,5.148305,4.592462,3.119695,18.525682
2.096618,14.717096,3.717070,1.151097,5.158360,4.598258,3.141075,18.464230
2.059890,14.505011,3.887402,1.093247,4.975773,4.625425,3.185084,18.114935
2.030526,14.303766,3.950878,1.076653,4.947747,4.661315,3.204905,18.005386
2.035081,14.167084,3.965162,1.076369,4.935390,4.690719,3.216601,17.987200
2.019124,13.767913,4.036944,1.083658,4.969086,4.841031,3.336985,17.246851
2.008148,13.684687,4.073894,1.091658,5.014221,4.898479,3.360917,17.151623
1.968893,13.520982,4.181849,1.112023,5.090177,5.022779,3.411873,17.011993
1.984688,13.415008,4.282639,1.144047,5.131231,5.086379,3.443257,16.958351
1.992303,13.328069,4.307223,1.155037,5.187171,5.107216,3.457093,16.953167
2.005980,13.200459,4.331338,1.164972,5.285990,5.171131,3.472766,16.992628
2.008925,13.067913,4.341489,1.165170,5.369639,5.228529,3.474208,17.032038
2.008163,13.085105,4.336345,1.165501,5.413340,5.244584,3.471150,16.998499
2.002057,13.165498,4.319565,1.188106,5.617753,5.275433,3.498214,16.967783
2.002772,13.060909,4.291295,1.192578,5.703481,5.296321,3.505248,16.969452
2.020200,12.919035,4.265286,1.196692,5.815956,5.335413,3.534043,16.953743
2.097146,12.601775,4.189016,1.196599,5.887065,5.394410,3.585351,16.829885
2.132813,12.486353,4.137807,1.192908,5.883063,5.388435,3.618212,16.793016
2.165629,12.339537,4.090693,1.189511,5.879381,5.342304,3.650240,16.747087
2.234069,12.019630,3.995569,1.181505,5.893095,5.271077,3.703717,16.686823
2.269259,11.852986,3.952958,1.177014,5.908829,5.246162,3.710268,16.635719
2.339432,11.603679,3.876574,1.169082,5.932920,5.206663,3.736412,16.619194
2.452858,11.273085,3.764036,1.151413,6.034434,5.157312,3.746208,16.722336
2.545526,11.041569,3.656809,1.119284,6.321612,5.215964,3.666768,16.617910
2.608050,10.874326,3.594377,1.095454,6.476833,5.267944,3.604027,16.556934
2.626612,10.813962,3.564708,1.084346,6.545267,5.303277,3.576547,16.528404
2.660203,10.538816,3.288002,1.056074,6.730013,5.324670,3.485044,16.476532
2.673745,10.485393,3.112416,1.020899,6.842420,5.339814,3.413334,16.426413
2.698742,10.506451,3.035006,1.003896,6.891974,5.328254,3.383314,16.408199
2.784676,10.569126,2.787733,0.946025,7.018110,5.279787,3.327558,16.815674
2.867625,10.620531,2.647121,0.910280,7.086287,5.245862,3.303241,17.183851
2.918837,10.647135,2.585130,0.894521,7.124248,5.230389,3.289281,17.336334
3.046556,10.527683,2.382602,0.812770,6.974637,5.134558,3.240254,17.847298
3.076586,10.431417,2.304346,0.789002,6.939974,5.128922,3.227340,17.940809
3.182658,10.375678,2.046389,0.728504,6.851744,5.117147,3.209199,18.203274
3.217901,10.402003,1.973772,0.711473,6.799070,5.108829,3.213458,18.281166
3.250326,10.420209,1.906961,0.681129,6.761657,5.092395,3.205130,18.290804
3.282870,10.506703,1.788938,0.627526,6.695565,5.052480,3.226436,18.450214
3.367630,10.704501,1.680492,0.577602,6.566909,5.008385,3.240587,18.678968
3.406612,10.803522,1.632682,0.555592,6.475348,4.980034,3.253771,18.793627
3.512337,11.198631,1.515651,0.538393,6.390604,4.860105,3.349599,18.779547
3.551809,11.368647,1.499341,0.539737,6.390382,4.832202,3.390936,18.738266
3.692742,12.160112,1.456668,0.522144,6.444380,4.796084,3.654580,18.898972
3.799546,12.698280,1.406852,0.512917,6.421282,4.788907,3.883563,19.064127
3.857167,12.976150,1.377590,0.522776,6.424824,4.784192,4.086582,19.152016
4.025722,13.837349,1.451940,0.648099,6.759701,4.946311,5.049537,19.634336
4.091561,14.125746,1.493927,0.685165,6.865433,5.007448,5.441654,19.888710
4.152136,14.408952,1.532556,0.719268,6.962711,5.063695,5.804593,20.123106
4.326484,15.538855,1.727758,0.826512,7.141857,5.270321,7.041857,20.645071
4.442316,16.573452,1.907672,0.909405,7.182110,5.385527,7.772403,21.003067
4.773493,19.459002,2.289273,1.080642,7.304005,5.675924,9.180804,21.668266
4.855576,19.968676,2.354825,1.135254,7.338349,5.745095,9.458785,21.791899
4.925337,20.417231,2.415136,1.185501,7.369947,5.804236,9.737280,21.852873
5.155190,21.970154,2.568647,1.341901,7.479149,6.003734,10.465330,21.855804
5.279314,23.018633,2.651621,1.446806,7.373026,6.078842,10.919228,21.832579
5.368923,23.505072,2.702969,1.496879,7.321605,6.122829,11.141903,21.821087
5.541641,24.370720,2.804183,1.602590,7.315111,6.248448,11.654660,21.873344
5.713722,25.308649,2.912843,1.692073,7.309614,6.343547,12.283695,21.944345
5.802750,25.841749,2.971761,1.731523,7.307190,6.384001,12.576051,22.006718
6.297872,28.325314,3.291762,2.017541,7.073627,6.657093,13.957648,22.638529
6.397801,28.827318,3.372105,2.065191,7.031177,6.744957,14.219611,22.710138
6.556437,29.809723,3.548356,2.149366,6.956186,6.895353,14.682901,22.673912
6.673841,30.694441,3.697549,2.220618,6.901732,7.039205,15.110703,22.600523
6.726176,31.184422,3.764924,2.252031,6.932213,7.111963,15.364475,22.546122
6.877566,32.691349,3.936417,2.331987,7.014538,7.255970,16.296486,22.617743
7.030258,33.573490,4.029109,2.375203,7.083686,7.341515,17.125391,22.753237
7.112906,34.056610,4.070039,2.399612,7.114170,7.367217,17.543129,22.825436
7.291245,35.171741,4.174220,2.461739,7.182797,7.438959,18.602898,23.163668
7.442643,36.093784,4.258411,2.510124,7.189839,7.538109,19.530998,23.433191
7.585408,36.674049,4.323980,2.547806,7.195324,7.631815,20.361265,23.539675
7.705978,37.141872,4.389087,2.627739,7.289373,7.679785,20.780005,23.593670
7.780347,37.360512,4.409221,2.666707,7.383283,7.704984,20.970636,23.574995
7.922347,37.526810,4.369749,2.765894,7.593894,7.731575,21.347420,23.451519
7.940459,37.404560,4.338963,2.816010,7.672891,7.703046,21.426760,23.313272
7.971116,37.370785,4.325390,2.836429,7.704043,7.670349,21.454845,23.177570
8.035031,37.078102,4.222146,2.788385,7.555667,7.475324,21.271662,22.764685
8.034870,36.971142,4.079271,2.723994,7.427628,7.307482,20.955788,22.280470
8.105891,36.822086,3.881019,2.651559,7.484303,7.125531,20.467838,21.699827
8.096102,36.328121,3.765012,2.656898,7.619094,7.099150,20.067741,21.230133
8.082776,36.002075,3.723986,2.674312,7.711456,7.103733,19.878788,20.997658
8.121394,35.264233,3.650432,2.704819,7.898954,7.105200,19.580723,20.837194
8.113151,34.776909,3.617486,2.718269,7.991868,7.093342,19.456472,20.788218
8.083319,33.777092,3.526620,2.726834,8.052150,7.014982,19.258839,20.649609
8.021211,33.042416,3.449703,2.688430,8.100791,6.919189,18.973082,20.579750
7.917563,32.277504,3.388551,2.647668,8.126979,6.807539,18.718529,20.464668
7.828228,31.403734,3.401523,2.662952,8.148284,6.741750,18.511122,20.417280
7.728302,30.543890,3.397736,2.674552,8.158480,6.674640,18.290079,20.463839
7.663334,30.129488,3.385392,2.668847,8.115290,6.617890,18.158453,20.550468
7.565757,29.482992,3.363586,2.658768,8.139277,6.497712,17.759411,20.707569
7.444808,28.570089,3.300997,2.650236,8.159582,6.440637,17.409374,20.766539
7.394644,28.141521,3.259724,2.621963,8.169102,6.415473,17.266197,20.829374
7.230767,27.280321,3.173801,2.581184,8.476857,6.459874,16.941599,20.966564
7.156563,26.856743,3.115583,2.566792,8.612535,6.458727,16.786631,21.027534
7.074035,26.418282,3.063967,2.553550,8.737365,6.449925,16.642290,21.071558
6.955077,25.623543,2.922434,2.531125,8.975642,6.427641,16.349844,21.250998
6.808547,24.422522,2.766874,2.545319,9.708528,6.443032,15.955680,21.449522
6.688814,23.056782,2.925424,2.574688,11.028750,6.582458,15.379930,21.543175
6.652370,22.663532,2.970057,2.585318,11.555887,6.620036,15.118546,21.472931
6.607489,22.293787,3.011122,2.595098,12.231772,6.689935,14.783315,21.507326
6.424770,21.121426,3.115520,2.609707,14.507247,6.935796,13.866625,21.659058
6.366178,20.341860,3.171910,2.614458,15.911589,7.116815,13.369756,21.745729
6.329369,20.008699,3.195666,2.616552,16.530716,7.189401,13.130597,21.718168
6.221995,19.135551,3.256132,2.621883,18.106596,7.354484,12.402219,21.663116
6.092068,18.507158,3.288815,2.626395,19.129749,7.477177,11.936077,21.650269
5.824413,17.512335,3.290454,2.493249,21.044199,7.879021,11.370071,21.695818
5.728500,17.176718,3.303386,2.445219,21.737389,8.067832,11.250003,21.711214
5.649864,16.874622,3.315283,2.427268,22.456415,8.267341,11.211058,21.746315
5.604463,16.596680,3.326230,2.410752,23.170372,8.509545,11.179608,21.903875
5.531897,16.084368,3.365552,2.459712,24.933920,9.131839,11.225696,22.348822
5.484316,15.822724,3.382889,2.498158,25.845629,9.466851,11.284916,22.609209
5.332184,15.047552,3.415307,2.621077,28.893255,10.449857,11.307990,23.282701
5.283593,14.708785,3.424433,2.683643,29.787085,10.734140,11.265571,23.467283
5.238887,14.408009,3.431981,2.736605,30.595419,10.988336,11.211091,23.635208
5.003525,13.209980,3.421390,2.951710,33.177109,11.711518,10.920057,24.173571
4.887775,12.842616,3.311192,3.126661,34.571850,11.902926,10.779276,24.793409
4.639406,12.332121,3.176786,3.396115,36.634525,12.350202,10.639804,25.321026
4.512582,12.033132,3.097078,3.541757,38.280769,12.708375,10.606365,25.568193
4.430373,11.666289,3.029607,3.665040,39.850136,13.008743,10.654131,25.783396
4.374707,11.124381,2.907897,3.792436,42.911655,13.669579,10.702306,26.066471
4.365265,10.970193,2.852106,3.805435,43.998215,13.917277,10.726498,26.127220
4.358875,10.833649,2.800775,3.828496,44.997894,14.151912,10.737654,26.215370
4.337631,10.592244,2.666525,3.887196,47.490185,14.784132,10.738479,26.154821
4.311121,10.481770,2.592860,3.924580,48.954800,15.126536,10.714051,26.394783
4.281091,10.396921,2.530505,3.961429,50.552364,15.481852,10.668159,26.591825
4.274025,10.322662,2.503014,3.976798,51.147640,15.584454,10.645199,26.581903
4.276675,10.267698,2.477721,3.973745,51.820492,15.664943,10.629497,26.538057
4.259944,9.967697,2.421621,4.031765,53.727001,15.976373,10.577601,26.380268
4.257144,9.834791,2.405846,4.051762,54.290428,16.081846,10.578000,26.464949
4.249568,9.746779,2.391332,4.070161,54.793461,16.190102,10.578367,26.593279
4.244478,9.644981,2.324929,4.061119,55.425152,16.334869,10.561727,26.802683
4.245305,9.660334,2.084000,4.053465,55.381027,16.378712,10.522574,27.042759
4.300952,9.690960,1.790146,4.039596,54.801971,16.303293,10.415412,27.341423
4.310551,9.700432,1.675382,4.030711,53.862320,16.181076,10.310085,27.528303
4.315361,9.706357,1.627316,4.026794,53.375793,16.135796,10.254373,27.644539
4.278193,9.802084,1.504970,4.016824,52.973667,16.122318,10.194235,28.239908
4.271593,9.831233,1.470529,4.014018,53.150738,16.163157,10.197695,28.513762
4.260982,9.847631,1.438841,4.011436,53.313652,16.207449,10.197497,28.805000
4.206051,9.898748,1.358186,4.003232,53.590038,16.282917,10.209090,29.580200
4.188426,9.906847,1.335481,3.999882,53.424507,16.303043,10.220964,29.835968
4.179085,9.868203,1.297412,3.996800,53.157600,16.255096,10.226077,30.035664
4.150355,9.820508,1.086261,3.872455,50.849823,15.525018,9.803062,30.633501
4.122819,9.871309,1.055566,3.811684,50.129314,15.329711,9.671987,30.529577
4.082749,10.077499,0.977436,3.604756,47.817383,14.623353,9.277238,30.394732
4.091176,10.162416,0.955442,3.540343,47.031036,14.458214,9.158146,30.404064
4.101657,10.269631,0.935206,3.461565,46.351421,14.303639,9.063731,30.388979
4.131549,10.324092,0.878686,3.229976,44.591686,14.075589,8.877516,30.374989
4.130315,10.293270,0.859574,3.153469,44.053932,13.992028,8.828680,30.382982
4.140369,10.360083,0.841990,3.083079,43.558743,13.915148,8.792846,30.340284
4.147110,10.391152,0.825812,2.928606,43.006256,13.816971,8.758488,30.224869
4.172152,10.533486,0.784633,2.475209,41.120697,13.519261,8.690103,29.864780
4.159694,10.637569,0.752563,2.109626,38.835327,13.080719,8.551711,29.757156
4.151379,10.681873,0.743535,2.006711,38.139027,12.967436,8.507157,29.715023
4.143728,10.736223,0.735229,1.912024,37.331844,12.878469,8.457624,29.679571
4.092422,11.055706,0.714087,1.665349,34.730892,12.392208,8.318626,29.715199
4.087071,11.336308,0.702660,1.513015,33.071331,11.965809,8.221702,29.753548
4.094922,11.457294,0.697622,1.440537,32.342239,11.754119,8.182137,29.798302
4.080582,11.747401,0.684799,1.256056,30.486467,11.232910,8.114268,29.658781
4.066065,11.889997,0.677868,1.157599,29.100462,10.885891,8.039235,29.486961
4.037221,12.163195,0.664082,1.031074,26.678612,10.483412,7.914801,29.431412
4.000412,12.298176,0.637431,0.943083,25.793404,10.349946,7.852314,29.379631
3.975393,12.395342,0.625681,0.904291,25.358658,10.289592,7.816320,29.193365
3.903878,12.514250,0.595775,0.805552,24.123720,10.120289,7.794832,28.857655
3.871310,12.541342,0.587356,0.777756,23.785547,10.085084,7.791982,28.739479
3.839317,12.574413,0.579611,0.752182,23.468622,10.045916,7.784118,28.627867
3.707711,12.664331,0.559895,0.687090,23.086048,10.050297,7.806660,28.294384
3.667696,12.700435,0.534142,0.668765,23.047981,10.084660,7.814119,28.152815
3.512576,12.875076,0.431431,0.608995,23.149900,10.153732,7.785550,27.306244
3.462261,12.929907,0.391574,0.585801,22.774403,10.096169,7.702466,26.788242
3.449463,12.973371,0.374003,0.575575,22.542561,10.061489,7.680087,26.536272
3.422569,13.033001,0.330131,0.549548,21.919344,9.977990,7.693429,25.757235
3.414998,13.042882,0.318327,0.542221,21.704315,9.908177,7.699333,25.468197
3.413788,13.158729,0.307466,0.535480,21.506481,9.840098,7.739561,25.217682
3.438462,13.751982,0.278446,0.518321,20.964912,9.604205,7.844052,24.493244
3.439911,13.946187,0.269398,0.513491,20.788187,9.542070,7.877330,24.217493
3.442471,14.284916,0.229681,0.504959,20.526968,9.424002,7.904917,23.687481
3.475529,14.779294,0.167602,0.483243,20.015043,9.188890,7.896422,22.756004
3.466681,14.851483,0.155056,0.472839,19.857653,9.119484,7.920792,22.636709
3.474190,15.051140,0.123121,0.446356,19.574766,8.818274,8.015942,22.607128
3.553556,15.094810,0.105860,0.432042,19.437782,8.689711,8.183479,22.978193
3.625527,15.045513,0.091249,0.419925,19.158381,8.544516,8.347098,23.277317
3.738866,15.037948,0.073428,0.405147,18.820616,8.329952,8.506959,23.493032
3.775591,15.035723,0.068412,0.400987,18.726011,8.273246,8.547582,23.504753
3.809777,15.030315,0.063796,0.397159,18.665089,8.215100,8.580421,23.492126
3.845186,15.009275,0.059550,0.393638,18.609035,8.140228,8.588739,23.490032
3.918356,14.917938,0.052048,0.387417,18.466742,8.000266,8.596975,23.479343
4.050601,14.562306,0.037953,0.370954,17.341072,7.701109,8.681186,23.453447
4.077854,14.593388,0.035773,0.385986,17.165945,7.649750,8.754909,23.432379
4.102929,14.626314,0.033767,0.399817,17.004820,7.602496,8.805602,23.408800
4.192519,14.602736,0.028661,0.422903,16.569317,7.474119,8.939322,23.234467
4.239661,14.612057,0.027224,0.419662,16.419853,7.437044,9.046147,23.266008
4.280519,14.630253,0.025902,0.416680,16.255878,7.402931,9.162605,23.350790
4.328164,14.678095,0.023894,0.411140,15.836173,7.181693,9.357823,23.545708
4.352288,14.701150,0.023167,0.425748,15.574092,7.062628,9.442298,23.658398
4.391966,14.789915,0.032537,0.457859,15.334572,6.976937,9.531013,23.744980
4.543777,15.218921,0.069277,0.613098,14.546031,6.691006,10.107511,23.837320
4.579635,15.265768,0.074960,0.639750,14.423485,6.645587,10.231150,23.876768
4.760824,15.390825,0.089426,0.707590,13.647778,6.443320,10.582027,24.252331
4.809541,15.443035,0.093498,0.735746,13.398763,6.392460,10.728084,24.386389
4.860904,15.539454,0.098360,0.761651,13.161699,6.347209,10.880674,24.506937
4.990888,15.769171,0.106949,0.807413,12.429195,6.266115,11.404988,24.873194
5.084597,16.025631,0.110736,0.832189,11.897817,6.226352,11.705914,25.032669
5.171025,16.415178,0.128694,0.854984,11.387897,6.192516,11.995799,25.131542
5.479421,17.717093,0.267300,0.913005,10.289475,6.102057,12.776940,25.320913
5.793548,19.010128,0.390339,0.979325,9.615742,6.096946,13.637438,25.744865
6.129676,20.200056,0.546613,1.135141,9.522029,6.288404,14.480503,26.236813
6.225563,20.572203,0.596321,1.199771,9.545945,6.349090,14.689602,26.409727
6.319638,21.018671,0.667123,1.259234,9.567949,6.398215,14.871653,26.547729
6.682210,22.086510,0.847338,1.480819,9.612206,6.484155,15.441555,26.999905
6.899551,22.734442,0.944745,1.628163,9.699471,6.568385,15.841567,27.487637
7.028796,23.072462,1.004807,1.696348,9.763216,6.636173,16.006680,27.708059
7.389145,24.121059,1.198353,1.886530,9.838469,6.740829,16.496384,28.402645
7.578075,24.897915,1.326289,1.989325,9.748033,6.826185,16.782728,28.591257
7.864607,26.502035,1.566854,2.257061,9.642517,7.117159,17.311783,28.492683
7.938973,26.896860,1.615474,2.329198,9.648529,7.187358,17.490078,28.569548
8.041360,27.358152,1.693238,2.425309,9.705991,7.289342,17.674368,28.722185
8.135560,27.812368,1.764784,2.513736,9.758859,7.369285,17.844870,28.959929
8.237187,28.230268,1.830610,2.595092,9.781384,7.451097,18.064428,29.206026
8.386879,29.004627,1.946893,2.738809,9.821177,7.617053,18.481810,29.681728
8.540361,30.096666,2.129189,2.943970,9.904089,7.833023,19.123360,30.205824
8.600940,30.466112,2.206349,3.020799,10.045485,7.934543,19.327738,30.347784
8.667547,30.756489,2.277339,3.091485,10.175573,8.027945,19.518976,30.509895
8.861579,31.609524,2.604787,3.247248,10.546882,8.381397,20.089909,31.146189
8.918406,31.890385,2.707179,3.280310,10.735693,8.503860,20.227613,31.356091
9.075838,32.646458,2.967799,3.364464,11.692739,8.860938,20.488937,31.631506
9.131230,32.835732,3.041166,3.388154,11.989147,8.975112,20.584763,31.630457
9.183303,33.000492,3.108338,3.395622,12.313361,9.080068,20.682522,31.668915
9.331568,33.580963,3.332004,3.457850,13.201160,9.346084,21.044502,32.023338
9.392635,33.766201,3.403365,3.490340,13.425198,9.388341,21.144789,32.174000
9.448820,33.941986,3.469020,3.514547,13.620882,9.422076,21.202421,32.289963
9.600961,34.305416,3.636134,3.576161,14.340455,9.553918,21.232866,32.419868
9.630051,34.708786,3.766282,3.638318,15.108753,9.710257,21.193710,32.173267
9.736983,35.042728,3.939548,3.689421,15.724188,9.864204,20.916594,31.834806
9.751261,35.079441,3.990583,3.705545,15.884683,9.886617,20.717072,31.610031
9.750783,34.949150,4.037537,3.715779,16.134741,9.936697,20.515511,31.411312
9.705911,34.140629,4.053480,3.772092,16.708435,10.050699,19.932289,30.958033
9.634033,33.671432,4.050232,3.815022,16.972036,10.126283,19.613800,30.750708
9.603433,33.390156,4.064105,3.830201,17.088249,10.148582,19.395903,30.638231
9.448175,32.040573,4.052008,3.858552,17.024868,10.045032,18.650257,30.460228
9.378150,31.582342,4.040889,3.847999,16.940435,10.040027,18.478247,30.520973
9.071270,29.631952,4.348669,3.783410,17.215593,10.346681,17.912230,30.659452
8.972307,29.216282,4.474013,3.768465,17.278227,10.406416,17.785847,30.727522
8.892071,28.784952,4.589334,3.761099,17.335855,10.453876,17.628727,30.703814
8.705260,27.956232,4.775934,3.735159,17.361403,10.516545,17.406229,30.433325
8.596754,27.573763,4.849998,3.717712,17.387144,10.534030,17.285265,30.230482
8.402490,26.656464,4.940163,3.686892,17.449036,10.589733,16.959061,29.696812
8.064112,25.200285,5.023009,3.667463,17.937086,10.634770,16.377563,28.826693
7.847047,24.176371,5.053747,3.606525,18.605492,10.628559,16.013708,28.352608
7.193852,21.626734,5.068631,3.442719,20.842888,10.696597,14.793015,26.688776
7.057099,21.170385,5.061643,3.424107,21.197042,10.698846,14.549163,26.407728
6.937946,20.723541,5.084101,3.406984,21.522881,10.708170,14.322756,26.144014
6.631949,19.764261,5.100796,3.333526,22.792217,10.774611,13.618806,25.641342
6.536139,19.490395,5.079655,3.293772,23.043694,10.773211,13.409268,25.525509
6.437357,19.250740,5.065689,3.257197,23.417494,10.773174,13.189827,25.492262
6.253782,18.720692,5.060452,3.192586,24.543093,10.764495,12.798589,25.826181
6.098125,18.031229,4.960130,3.221700,26.153917,10.893234,12.455780,26.146135
6.018847,17.664648,4.902585,3.246740,26.818436,10.895135,12.294622,26.303789
5.783102,16.634127,4.756112,3.335394,28.604498,10.898017,11.807910,26.613832
5.657672,16.033813,4.681949,3.403933,29.631514,10.915096,11.411222,26.684603
5.527831,15.383196,4.706254,3.426129,30.442419,10.902126,11.031422,26.536955
5.381746,14.632325,4.738196,3.371183,31.272463,10.937692,10.657376,26.661293
5.310354,14.326862,4.752279,3.346959,31.692524,11.030430,10.503228,26.763180
5.119068,13.580546,4.788122,3.285301,32.585907,11.346762,10.106192,27.081787
5.046999,13.328356,4.798212,3.267944,32.810539,11.434124,9.995731,27.213028
4.982093,13.075923,4.807495,3.262501,33.017204,11.529730,9.899874,27.344790
4.784553,12.355465,4.780524,3.240539,33.634762,11.777754,9.657448,27.594805
4.637148,11.813269,4.746402,3.229391,33.929848,11.952434,9.459962,27.737833
4.377170,10.823185,4.689888,3.230772,34.062672,12.208186,9.096511,28.228531
4.290743,10.450788,4.657771,3.214201,34.159016,12.383882,8.904880,28.454254
4.244042,10.332891,4.639318,3.205416,34.475975,12.504939,8.817993,28.463793
4.161799,10.167755,4.599146,3.160189,35.025414,12.741012,8.620234,28.456556
4.083450,10.013392,4.560928,3.094318,35.647995,12.981687,8.435693,28.298780
4.046874,9.943575,4.482415,3.109496,35.909477,13.031984,8.340731,28.171846
3.959153,9.767345,4.232356,3.137547,36.244881,13.031522,8.192610,27.994852
3.823424,9.548410,3.762449,3.074807,36.649746,13.065212,7.971136,27.786955
3.773520,9.482404,3.622172,3.053069,36.791637,13.107948,7.889122,27.752148
3.600070,9.229038,3.164611,3.034522,37.547783,13.432926,7.404502,27.597784
3.559641,9.234817,3.072135,3.042562,37.663116,13.509824,7.320216,27.586454
3.530799,9.303265,2.987053,3.045007,37.739536,13.591063,7.238925,27.592587
3.479847,9.436005,2.847446,3.032714,37.585716,13.734735,7.092259,27.803501
3.482626,9.499415,2.785898,3.027294,37.386124,13.759446,7.060131,27.969694
3.515369,9.858779,2.602966,3.008615,36.314545,13.774111,7.047422,28.409740
3.539043,9.974301,2.547282,2.972124,35.977730,13.765891,7.048165,28.499954
3.577352,10.163962,2.448915,2.907662,35.391190,13.766964,7.035014,28.492928
3.640714,10.264824,2.253811,2.830293,34.721287,13.708584,7.001205,28.366776
3.671529,10.128750,2.154224,2.790011,34.247803,13.617084,7.024069,28.130123
3.704865,9.935675,2.073286,2.740881,33.075966,13.647716,7.013322,26.955858
3.731785,9.886530,2.094323,2.623895,31.908997,13.542411,6.996632,26.182775
3.745647,9.863252,2.120139,2.560116,31.364712,13.507634,6.981414,25.800137
3.745096,9.858003,2.185850,2.372856,29.408215,13.441612,6.902911,24.918936
3.746243,9.887470,2.216360,2.251020,28.068663,13.509292,6.906561,24.668194
3.745217,9.906824,2.190891,2.191590,27.472502,13.539351,6.889341,24.578329
3.722044,9.895638,1.988188,2.047197,25.993057,13.536119,6.762276,23.860369
3.708157,9.855332,1.931125,2.010942,25.497480,13.462141,6.726951,23.544827
3.649040,9.648335,1.744994,1.942673,24.759592,13.080746,6.692388,22.569939
3.637854,9.658207,1.727223,1.941392,24.633474,13.008439,6.702418,22.402199
3.632381,9.710772,1.712236,1.936003,24.428720,12.921823,6.707696,22.263119
3.581985,9.934233,1.674089,1.924381,24.035700,12.528848,6.716658,22.026487
3.522768,10.110338,1.653470,1.904258,23.789413,12.212223,6.756828,21.908684
3.496252,10.183253,1.644380,1.888755,23.672140,12.064415,6.808564,21.830524
3.436186,10.349313,1.628322,1.861368,23.537460,11.815579,6.907589,21.638269
3.394401,10.443538,1.627886,1.838185,23.309185,11.527236,7.007973,21.550356
3.377656,10.457140,1.630815,1.826715,22.943819,11.372413,7.042521,21.519873
3.277011,10.687250,1.667800,1.760359,21.767408,10.655289,7.182662,21.528334
3.274620,10.838729,1.687754,1.716253,21.589092,10.518018,7.172375,21.581493
3.273449,11.173743,1.767742,1.600559,21.138786,10.122867,7.147777,21.516998
3.267466,11.292150,1.801159,1.567990,20.967596,9.947783,7.161922,21.459606
3.261960,11.431659,1.831905,1.538024,20.810091,9.779509,7.176239,21.401218
3.283040,11.823304,1.910163,1.433710,20.346838,9.275150,7.317206,21.307371
3.300815,11.938460,1.932193,1.387924,20.149837,9.115487,7.338651,21.273920
3.355468,12.180286,1.971110,1.307042,19.801830,8.820748,7.412316,21.232729
3.380506,12.535690,2.003170,1.208394,19.326973,8.491498,7.532505,21.053543
3.382463,12.603354,2.057127,1.142243,19.207552,8.320713,7.521152,21.048540
3.363923,12.666792,2.147393,1.081616,19.072952,8.108472,7.418950,21.011007
3.356538,12.684507,2.188419,1.070678,19.026615,8.041739,7.385615,20.972544
3.319374,12.703063,2.264995,1.051356,18.714123,7.897848,7.365110,20.929026
3.289913,12.666757,2.404822,1.037506,18.283415,7.706747,7.291321,20.831329
3.277146,12.723503,2.453693,1.035708,18.212780,7.680125,7.289062,20.806049
3.280955,12.828399,2.486550,1.034054,18.097374,7.641659,7.301138,20.798201
3.282942,13.155914,2.426626,1.029844,17.627031,7.549337,7.342402,20.865831
3.260433,13.328371,2.389954,1.027568,17.480568,7.509965,7.359084,20.804588
3.204850,13.763704,2.332636,1.024011,17.388018,7.305486,7.420735,20.738909
3.197216,13.911697,2.321052,1.022782,17.374783,7.232318,7.422669,20.727348
3.188148,14.047857,2.310394,1.021652,17.282616,7.170949,7.424448,20.714462
3.165928,14.384767,2.298713,1.005568,17.045437,7.010461,7.472344,20.688894
3.181572,14.479355,2.304029,1.021131,16.994886,6.960057,7.476549,20.695959
3.199864,14.673304,2.313421,1.034659,16.858944,6.889459,7.444858,20.641411
3.207325,14.937751,2.427567,0.970211,16.616526,6.805920,7.362007,20.303320
3.236501,15.009679,2.525086,0.914993,16.395590,6.769175,7.296683,20.342037
3.292736,15.080365,2.651760,0.847644,16.141619,6.877932,7.169808,20.297621
3.328995,15.136325,2.721020,0.811242,15.985600,6.931227,7.054811,20.262854
3.357321,15.141286,2.751554,0.795193,15.898729,6.956553,6.997075,20.262861
3.396311,15.149788,2.796187,0.754344,15.638512,6.919182,6.855168,20.140623
3.412331,15.160158,2.797722,0.721977,15.367000,6.892177,6.783657,20.004948
3.421741,15.161655,2.803477,0.707707,15.266479,6.897088,6.744312,19.950119
3.450688,15.178170,2.796892,0.671385,14.714003,6.920664,6.696445,19.877756
3.480470,15.374388,2.761019,0.651753,14.300671,6.937644,6.681682,20.115562
3.494795,15.503327,2.742440,0.643098,14.118448,6.943542,6.682645,20.273212
3.535256,15.586267,2.716211,0.635135,13.950793,6.957744,6.693176,20.444336
3.600537,15.780471,2.682025,0.621068,13.589636,6.971600,6.766022,20.806023
3.661764,16.028812,2.640331,0.603911,13.119333,6.987816,6.795385,21.242201
3.670603,16.066278,2.628594,0.599081,13.062432,7.012943,6.811422,21.388519
3.688268,16.067314,2.617795,0.594637,13.038984,7.012834,6.794181,21.536966
3.715405,16.074413,2.607860,0.590549,13.042156,7.024399,6.761667,21.733639
3.773663,16.159472,2.590309,0.583327,12.948459,7.016784,6.679191,21.989754
3.810621,16.203505,2.565916,0.582020,12.875366,6.994082,6.647492,22.017759
3.881149,16.270819,2.522826,0.579712,12.650644,6.953114,6.680571,22.172850
3.982493,16.408834,2.461895,0.557703,12.460422,6.910082,6.728332,22.371181
4.228697,16.694021,2.319793,0.524697,12.163102,6.857958,6.804810,22.834394
4.269660,16.754164,2.259949,0.512096,12.103012,6.855844,6.819017,22.954262
4.307347,16.809498,2.204890,0.500503,12.047727,6.857214,6.868361,23.061209
4.400335,16.645321,2.064749,0.470993,11.708373,6.673271,6.973400,23.402685
4.445787,16.596874,1.989001,0.455043,11.443501,6.551781,7.120504,23.522976
4.476823,16.662880,1.941294,0.448011,11.250683,6.493983,7.208395,23.605696
4.598239,16.854567,1.819866,0.430113,10.675984,6.316892,7.393709,23.745018
4.662722,16.910732,1.754233,0.420439,10.352629,6.233763,7.528911,23.920132
4.683330,16.925819,1.725297,0.429051,10.222322,6.218132,7.601203,23.971853
4.811625,17.528318,1.585800,0.456076,9.772360,6.352844,7.791869,24.290138
4.821045,17.662590,1.556998,0.455096,9.526963,6.387920,7.842782,24.371885
4.890644,17.953079,1.412846,0.451721,9.012355,6.467887,8.011281,24.875938
4.934079,18.107868,1.236278,0.448816,8.938771,6.505174,8.131664,25.079065
4.956023,18.230978,1.158435,0.447536,8.906332,6.516026,8.190801,25.091570
5.044687,18.888445,0.960808,0.447543,8.808257,6.532176,8.346388,25.114113
5.099597,19.096880,0.904804,0.448130,8.770749,6.539238,8.393738,25.136408
5.150115,19.306381,0.858329,0.448670,8.736240,6.549073,8.438137,25.143469
5.252293,20.019001,0.788814,0.491378,8.760647,6.616484,8.606187,25.269182
5.357112,20.929844,0.756180,0.626282,8.752944,6.688761,8.782455,25.826349
5.492868,21.750891,0.709730,0.805394,8.684227,6.764345,9.089687,26.437246
5.503505,21.930176,0.696655,0.862275,8.664426,6.781166,9.232757,26.557831
5.513291,22.118130,0.684624,0.914608,8.646208,6.798802,9.364160,26.587029
5.568197,22.644175,0.656686,1.066547,8.624196,6.852626,9.708216,26.433441
5.590938,22.842800,0.644207,1.133408,8.664908,6.910573,9.793805,26.348375
5.625352,23.092352,0.632725,1.194924,8.704975,6.975456,9.903111,26.255634
5.782987,23.941614,0.670083,1.366121,8.786300,7.082297,10.227980,26.089283
5.834383,24.191977,0.680600,1.414315,8.797428,7.094778,10.331362,26.077778
6.011828,25.076830,0.751244,1.571515,8.855125,7.176158,10.829247,26.049015
6.065406,25.347857,0.790178,1.601274,8.865893,7.212587,10.958786,26.047573
6.131704,25.844229,0.858955,1.653844,8.926944,7.291824,11.172164,26.105835
6.158902,26.473871,0.942841,1.717961,9.364738,7.382777,11.397582,26.283787
6.153050,26.643782,0.966455,1.731748,9.513422,7.416348,11.475082,26.308649
6.158935,26.836800,0.988182,1.744433,9.650220,7.431478,11.523466,26.329433
6.199202,27.325626,1.049732,1.776719,9.998415,7.471551,11.597625,26.436653
6.223362,27.521273,1.072093,1.785808,10.096434,7.483707,11.587107,26.457169
6.243923,27.680506,1.125392,1.794170,10.192260,7.494891,11.571204,26.470852
6.275064,27.961729,1.347763,1.815455,10.584631,7.561028,11.437559,26.638271
6.289144,27.929029,1.414851,1.821446,10.701888,7.576893,11.374175,26.722597
6.297010,27.900040,1.585611,1.836832,11.000348,7.580863,11.255210,27.057398
6.300938,27.924023,1.633681,1.841249,11.084366,7.575028,11.215242,27.081415
6.313800,27.946089,1.677908,1.845313,11.136101,7.540895,11.177832,27.072495
6.333040,27.942617,1.790480,1.821293,11.215890,7.411718,11.162810,27.005089
6.324032,27.872395,1.821316,1.815336,11.197150,7.344020,11.189928,26.993174
6.318240,27.812088,1.862993,1.809855,11.153795,7.269445,11.214879,27.085663
6.314352,27.607504,1.976673,1.753155,11.355081,7.171290,11.284512,27.348352
6.317738,27.486526,2.067195,1.729968,11.399796,7.179344,11.306748,27.447191
6.300754,27.232849,2.217907,1.711560,11.223763,7.240464,11.310620,27.689716
6.281826,27.025846,2.260208,1.712681,11.184227,7.217345,11.315647,27.765192
6.244022,26.784607,2.299127,1.712082,11.147851,7.189954,11.315995,27.838419
6.100562,26.093534,2.451076,1.721932,11.087734,7.137091,11.262389,27.954304
6.024407,25.536293,2.501731,1.736944,11.013254,7.109732,11.189959,28.148376
5.985042,25.217493,2.513252,1.728922,11.017986,7.127408,11.120869,28.179718
5.891380,24.199675,2.542577,1.660635,11.273731,7.205711,10.908782,27.909534
5.858688,23.862326,2.550832,1.634374,11.370508,7.267378,10.864837,27.799767
5.759369,22.248825,2.709748,1.461149,12.066547,7.511357,10.331610,27.169615
5.731787,21.982723,2.770545,1.444324,12.227106,7.563056,10.213309,27.104698
5.703049,21.628136,2.849194,1.428843,12.426941,7.614292,10.093031,27.040279
5.612042,20.920200,2.988130,1.355245,12.780818,7.612926,9.788033,26.886641
5.544145,20.488163,3.025315,1.317514,13.010961,7.602111,9.631191,26.834492
5.490694,20.089735,3.059527,1.282799,13.222702,7.592161,9.489534,26.924503
5.360058,19.386324,3.119963,1.221474,13.647265,7.546529,9.258224,27.062532
5.211337,18.730188,3.171121,1.169564,14.328738,7.549243,9.011091,27.011026
5.136022,18.407766,3.180326,1.146678,14.585045,7.517135,8.860345,26.958057
4.899848,17.392725,3.148648,1.103120,15.237426,7.401834,8.377083,27.123705
4.768013,16.861515,3.123730,1.097589,15.640853,7.433250,8.102434,27.148033
4.646142,16.378546,3.112596,1.101243,15.853447,7.475823,7.859570,27.194479
4.533649,15.934542,3.112333,1.237498,16.422396,7.520329,7.619489,27.227924
4.471803,15.713387,3.112217,1.297567,16.726521,7.579649,7.514335,27.245739
4.247559,15.251978,3.109923,1.461991,17.689091,7.715307,7.271670,27.626564
4.121246,14.978650,3.024074,1.564994,18.295959,7.815565,7.186559,27.893677
4.069673,14.901914,2.961417,1.610405,18.503561,7.869748,7.159404,28.040060
3.886693,14.743170,2.801936,1.734628,19.827112,8.096340,7.053071,28.401844
3.822522,14.704000,2.757041,1.775114,20.321405,8.159723,7.024316,28.500729
3.715225,14.518488,2.716554,1.846374,21.206825,8.252373,6.942748,28.632593
3.610625,14.333047,2.718001,1.906695,21.943516,8.357016,6.870892,28.831612
3.573317,14.205212,2.718638,1.933289,22.289764,8.394778,6.808979,28.930595
3.474135,13.854079,2.706955,1.997491,23.211443,8.604795,6.574683,29.123089
3.443793,13.645975,2.699656,2.055745,23.588282,8.743256,6.462457,29.248930
3.419534,13.537012,2.703785,2.092712,23.661743,8.777957,6.382915,29.281298
3.333031,13.155465,2.682769,2.176056,23.895197,8.739424,6.152767,29.333258
3.313963,13.023438,2.672155,2.199518,24.002062,8.710706,6.091047,29.262173
3.244857,12.708660,2.686108,2.328334,24.325735,8.690506,5.863555,29.142206
3.234053,12.717791,2.679881,2.355038,24.392454,8.713897,5.821043,29.103781
3.240822,12.731231,2.674152,2.379606,24.453835,8.755121,5.856014,29.181086
3.371770,12.826124,2.658030,2.406668,24.535076,8.786427,6.007909,29.270588
3.409770,12.824888,2.652622,2.407072,24.451719,8.762568,6.051979,29.336359
3.434397,12.841069,2.647646,2.407443,24.375023,8.724190,6.092476,29.354279
3.500230,12.971876,2.665582,2.386898,24.196289,8.492945,6.118948,29.290810
3.535785,12.916939,2.698819,2.518283,24.338951,8.388874,6.105583,29.208958
3.553959,12.858880,2.647563,2.620653,24.690193,8.427341,6.095039,29.168482
3.552948,12.683990,2.570172,2.955891,25.523266,8.527210,6.097294,28.880363
3.555427,12.774956,2.549290,3.007520,25.538496,8.537847,6.129191,28.918806
3.554232,13.004820,2.496139,3.154854,25.380955,8.596264,6.183140,28.702147
3.555923,13.043091,2.481176,3.209194,25.096661,8.607683,6.193424,28.659100
3.567307,13.113999,2.467410,3.259189,24.834610,8.622880,6.210814,28.621231
3.606822,13.183437,2.432371,3.386444,24.242870,8.686238,6.306666,28.346609
3.605227,13.137366,2.420794,3.434174,23.824394,8.711318,6.355211,28.073551
3.608933,13.119364,2.562512,3.485469,23.424553,8.750932,6.400836,27.944965
3.621357,13.117289,2.774937,3.400147,22.612057,8.829422,6.481560,27.584700
3.633674,13.185302,2.923595,3.315633,21.950455,8.831276,6.521081,27.451523
3.686959,13.293101,3.107993,3.190423,20.926769,8.942844,6.456060,27.123566
3.691829,13.353046,3.159903,3.151649,20.687725,8.983726,6.400993,27.027584
3.691954,13.412170,3.207662,3.119839,20.433523,8.984583,6.339777,26.854645
3.711216,13.598398,3.359348,3.058365,18.954412,8.895048,6.173090,26.182259
3.733177,13.630043,3.421283,3.045368,18.422993,8.866074,6.138151,25.901100
3.746476,13.628850,3.478266,3.033410,17.927685,8.863482,6.126080,25.644331
3.777047,13.661630,3.598265,3.012286,17.061655,8.916066,6.086915,25.153625
3.775548,13.664473,3.659571,3.002973,16.679852,8.933825,6.062887,24.914392
3.765917,13.745075,3.899958,2.966457,15.028100,8.814170,6.087338,24.015478
3.773088,13.821967,3.917855,2.937257,14.763789,8.750631,6.142532,23.771212
3.783569,13.892713,3.934320,2.910392,14.572783,8.693752,6.198479,23.592508
3.781667,14.024339,3.952828,2.862934,14.404634,8.642828,6.315843,23.222342
3.778773,14.135509,3.958829,2.862568,14.321519,8.664029,6.426929,22.944820
3.776179,14.154473,3.985063,2.871013,14.264410,8.666923,6.473713,22.796045
3.765968,14.059212,4.048381,2.789005,14.144462,8.594337,6.644821,22.597219
3.742641,13.985435,4.066199,2.772430,14.108590,8.571096,6.618631,22.521038
3.562233,13.915026,4.111551,2.873914,14.017285,8.505941,6.571628,22.207308
3.510970,14.009983,4.124318,2.909948,13.991583,8.487232,6.562008,22.083071
3.418267,14.172580,4.146871,2.997146,13.998360,8.450567,6.567036,21.872847
3.298752,14.310692,4.135361,3.070450,14.026517,8.482595,6.556519,21.662783
3.198084,14.392755,4.111440,2.988167,13.691094,8.554364,6.538289,21.543209
3.159833,14.382812,4.100894,2.916802,13.254866,8.503345,6.550183,21.552927
3.072471,14.455100,3.985844,2.735023,12.382443,8.420008,6.629953,21.992947
3.049070,14.483628,3.953457,2.683768,12.136848,8.412190,6.664936,22.337458
3.026894,14.420233,3.923659,2.636610,11.902006,8.397878,6.695158,22.621193
2.960839,14.237608,3.826527,2.472838,11.135978,8.322201,6.680322,23.162178
2.949048,14.218980,3.807009,2.427036,10.981159,8.285866,6.670019,23.244471
2.906148,14.086958,3.772529,2.374831,10.680463,8.216990,6.627058,23.424879
2.850237,13.886452,3.813243,2.359436,10.400897,8.197374,6.543243,23.497185
2.836476,13.809870,3.837550,2.360922,10.335929,8.187396,6.508883,23.534321
2.823209,13.670279,3.811816,2.347823,10.255621,8.147101,6.453112,23.677814
2.815517,13.622826,3.734307,2.348508,10.166227,8.102313,6.427497,23.693703
2.814401,13.663264,3.655097,2.353526,10.039233,8.030558,6.409969,23.760483
2.921908,13.680703,3.522934,2.395549,9.882379,7.866172,6.457958,23.580198
2.976628,13.543602,3.437242,2.424429,9.791917,7.692681,6.485707,23.309923
3.085016,13.260912,3.339321,2.455788,9.433691,7.360089,6.541652,22.889399
3.120470,13.115883,3.312807,2.457541,9.317996,7.261657,6.558938,22.766003
3.154668,12.982449,3.288412,2.459155,9.297754,7.174826,6.580450,22.749557
3.217927,12.619449,3.142984,2.420696,9.257563,7.051449,6.593399,23.201860
3.235762,12.495097,3.061113,2.409869,9.254955,6.997051,6.584982,23.385963
3.243915,12.383376,2.970503,2.399909,9.252556,6.943605,6.577238,23.555347
3.302558,12.478557,2.736887,2.375437,9.246450,6.800682,6.593040,24.091856
3.324971,12.537215,2.671122,2.369112,9.244732,6.754425,6.575366,24.220020
3.338931,12.591184,2.610615,2.363292,9.243151,6.709411,6.519027,24.344328
3.314649,12.553086,2.373363,2.340472,8.914482,6.521001,6.257146,25.163637
3.310196,12.528855,2.336663,2.328728,8.773331,6.440868,6.226339,25.357878
3.353139,12.547991,2.212909,2.258580,8.426420,6.334379,6.247591,25.827736
3.383474,12.586708,2.160190,2.244508,8.315185,6.313812,6.256311,25.925297
3.429746,12.611506,2.111686,2.231561,8.212842,6.294888,6.264286,25.981121
3.536310,12.689519,1.988228,2.163611,7.952350,6.218182,6.225048,26.035137
3.597319,12.645145,1.921498,2.037125,7.818691,6.179224,6.196166,26.041569
3.635914,12.531945,1.892079,1.981361,7.759767,6.156898,6.215383,26.108961
3.667750,12.433511,1.865012,1.917795,7.688495,6.136356,6.234746,26.165071
3.771523,12.103415,1.796118,1.762502,7.457425,5.999594,6.284249,26.287611
3.883457,12.004801,1.742464,1.641623,7.286271,5.697791,6.313195,26.246809
3.948806,11.981307,1.696057,1.562283,7.062308,5.521752,6.276069,26.025427
3.977378,12.055429,1.681144,1.527305,6.979705,5.446438,6.300979,25.886492
4.088665,12.207331,1.643185,1.438275,6.884854,5.379497,6.328356,25.702295
4.134847,12.255694,1.632499,1.413212,6.880234,5.380274,6.344408,25.675966
4.206818,12.341347,1.622668,1.387044,6.903140,5.397624,6.371645,25.616678
4.489139,12.692104,1.597337,1.320439,6.961443,5.485757,6.476403,25.554283
4.579750,12.799080,1.590186,1.272983,6.977857,5.515843,6.519073,25.570801
4.877110,13.190761,1.425585,1.097899,7.002707,5.516335,6.644977,25.514675
4.976017,13.238608,1.356115,1.014762,6.935738,5.469635,6.680019,25.389414
5.015979,13.175838,1.295430,0.975096,6.882515,5.441283,6.679856,25.305754
5.090891,13.061363,1.130582,0.877409,6.761302,5.420653,6.629483,25.318693
5.113910,13.041125,1.077544,0.845401,6.745643,5.435852,6.637648,25.476372
5.127400,13.045112,1.028746,0.815953,6.731237,5.451719,6.647354,25.636978
5.218095,13.096320,0.901106,0.760630,6.662565,5.545827,6.695290,26.352674
5.274181,13.128618,0.827903,0.743441,6.625783,5.652881,6.785089,27.150017
5.330013,13.199147,0.806975,0.735864,6.523365,5.703546,6.841686,27.470015
5.564942,13.811784,0.829118,0.739578,6.231138,5.770076,7.170267,28.321068
5.676403,14.109710,0.877530,0.760742,6.224314,5.816392,7.306246,28.512541
5.964628,14.643319,1.000754,0.820259,6.206944,5.941002,7.669658,28.771450
6.087580,14.841631,1.055087,0.873931,6.314060,6.009059,7.778705,28.835722
6.200701,15.024155,1.105075,0.923444,6.487749,6.100724,7.875901,28.909130
6.427536,15.379430,1.193381,1.010909,6.794576,6.247488,8.030236,29.230436
6.574000,15.540274,1.232312,1.049470,6.929846,6.341583,8.129889,29.311277
6.708753,15.689782,1.268131,1.084947,6.988231,6.428155,8.242629,29.347046
7.064445,16.235703,1.365600,1.170088,7.138495,6.698217,8.504378,29.509186
7.247502,16.706972,1.397680,1.218745,7.211738,6.829987,8.738421,29.773027
7.347246,17.101604,1.444951,1.246902,7.251325,6.946792,8.989763,29.958786
7.396885,17.258354,1.473634,1.259315,7.279714,6.993046,9.131183,30.052799
7.444112,17.461720,1.504486,1.270735,7.305833,7.035603,9.290075,30.101685
7.503911,17.688498,1.532872,1.281243,7.333988,7.059494,9.443689,30.186878
7.584706,18.141491,1.583858,1.299804,7.435985,7.126764,9.664090,30.261326
7.621467,18.357136,1.615878,1.307988,7.566587,7.162014,9.745278,30.311214
7.773269,19.027901,1.727044,1.322443,7.679383,7.268942,9.910476,30.405951
7.830366,19.302549,1.776054,1.322315,7.687654,7.303185,9.981935,30.449701
7.957230,19.861240,1.900799,1.319606,7.751119,7.434994,10.313972,30.638800
8.014280,20.174034,1.959516,1.315222,7.764725,7.505724,10.546934,30.895458
8.049485,20.235540,1.979857,1.313290,7.754589,7.526615,10.590867,30.920238
8.081875,20.322691,1.998571,1.311512,7.745263,7.526678,10.663371,30.825079
8.118770,20.392206,2.015790,1.309877,7.680595,7.497199,10.725599,30.750422
8.133746,20.517666,2.046206,1.306987,7.551560,7.395706,10.876473,30.581923
8.078386,20.423676,2.071952,1.304541,7.390193,7.273674,11.001091,30.689085
7.999083,20.366850,2.093747,1.302471,7.253600,7.173446,11.087431,30.723745
7.962569,20.335619,2.103355,1.301558,7.193380,7.116469,11.129595,30.781349
7.952317,20.247520,2.174069,1.316899,6.915122,6.965332,11.363362,31.197874
7.975211,20.326683,2.198518,1.345132,6.858697,6.941795,11.439118,31.377413
8.138059,21.007181,2.316148,1.411693,6.715078,6.964740,11.599380,31.870916
8.177088,21.179289,2.352217,1.427650,6.661564,6.959752,11.638968,31.957376
8.206454,21.335249,2.398424,1.442332,6.612328,6.955162,11.696954,32.050106
8.223103,21.664452,2.480894,1.553753,6.484259,6.913400,11.766682,32.022388
8.193208,22.317867,2.611350,1.933324,6.515909,6.775096,11.931346,31.668962
8.147295,22.570452,2.731144,2.115221,6.634951,6.714383,11.968468,31.336611
8.063958,22.699110,2.825370,2.320072,6.735717,6.656488,11.942756,30.928314
7.873172,22.669874,2.889097,2.736737,6.689346,6.430682,11.748320,30.168001
7.587991,22.346785,3.032825,3.032751,6.655223,6.259299,11.445489,29.532066
7.463964,22.204981,3.069433,3.078601,6.533610,6.176649,11.355491,29.324121
7.275762,21.975798,3.134104,3.219866,6.175612,6.025673,11.237852,29.206774
6.960707,21.878529,3.212981,3.392163,5.845156,5.832676,10.940423,28.847643
6.761189,21.867050,3.253617,3.495162,5.719376,5.686550,10.709970,28.597893
6.661955,21.806877,3.271201,3.541025,5.704764,5.620504,10.600044,28.512280
6.435512,21.633282,3.348239,3.699290,5.683595,5.485935,10.196546,28.185139
6.288219,21.407080,3.347059,3.778283,5.850964,5.446455,9.865800,27.925278
6.107381,20.973576,3.319945,3.874628,6.046018,5.432173,9.308011,27.621353
6.001746,20.589552,3.303495,3.926704,6.125146,5.420202,8.998228,27.507803
5.950986,20.421980,3.286700,3.949663,6.093341,5.415815,8.874305,27.491880
5.692429,19.658760,3.165279,4.008099,6.585910,5.433875,8.536311,27.470316
5.547735,19.286951,3.099649,4.039684,7.329142,5.598437,8.307492,27.517395
5.474978,19.109282,3.070716,4.053610,7.652185,5.666393,8.174949,27.530094
5.276175,18.449654,3.077816,4.125029,8.523398,5.891543,7.860609,27.266081
5.212749,18.202045,3.108306,4.152116,8.778049,5.981576,7.747604,27.171310
5.136357,17.985474,3.136358,4.177037,9.012338,6.064788,7.646017,27.113783
4.853017,17.137867,3.325569,4.258326,9.978493,6.387814,7.167057,26.715113
4.698533,16.781822,3.398993,4.289870,10.542316,6.517156,6.968987,26.562492
4.470748,16.430342,3.478292,4.322583,11.504297,6.696994,6.691086,26.211706
4.369008,16.335968,3.494070,4.328115,11.765611,6.740865,6.618579,26.137592
4.267585,16.257986,3.497576,4.330821,12.098766,6.819465,6.506170,25.951509
3.894651,15.541555,3.648943,4.276412,13.755213,7.197976,6.265323,25.605478
3.659291,15.028804,3.858377,4.274330,15.266342,7.494445,6.163035,25.577765
3.555528,14.793099,3.937687,4.268174,15.969707,7.641638,6.122440,25.583923
3.308904,14.144014,4.137938,4.095485,17.822351,8.103501,6.034811,25.997309
3.130664,13.673731,4.293056,3.873809,19.149731,8.625650,5.928740,26.117479
3.022773,13.448333,4.296404,3.731763,20.141212,8.940301,5.849336,26.061705
2.941359,13.142633,4.268264,3.569452,21.048342,9.238866,5.824434,26.205841
2.900013,12.978411,4.247413,3.418295,21.496796,9.403978,5.829051,26.367649
2.810044,12.518272,4.289567,3.031256,22.953615,9.905591,5.879402,26.814856
2.782768,12.400990,4.265154,2.921936,23.376429,10.046190,5.950876,26.983412
2.736552,12.117821,4.219937,2.746615,24.123341,10.319974,6.066457,27.359928
2.660323,11.792715,4.264210,2.502537,25.798964,10.578760,6.131980,27.480900
2.664563,11.365748,4.367744,2.324063,27.285212,10.780333,6.185765,27.493805
2.706993,11.065027,4.432255,2.171395,28.394533,10.919424,6.211099,27.413914
2.723274,10.957952,4.442964,2.126933,28.749865,10.954151,6.229873,27.423077
2.735513,10.859439,4.452817,2.086025,29.184694,10.974211,6.247145,27.429459
2.720875,10.658066,4.529904,1.981903,30.562151,11.118259,6.237602,27.524231
2.720295,10.627347,4.563807,1.952592,31.031036,11.192886,6.242863,27.490870
2.723161,10.572515,4.753705,1.900751,32.144222,11.380409,6.271818,27.326111
2.800215,10.432566,4.974950,1.990153,32.618778,11.453602,6.241732,27.257040
2.823506,10.380600,5.044044,2.037860,32.614536,11.444103,6.229102,27.269110
2.837836,10.313099,5.107612,2.081754,32.404118,11.386317,6.217936,27.224445
2.901551,10.235352,5.269414,2.193476,31.857086,11.140934,6.209491,27.367712
2.992226,10.198688,5.280202,2.230182,31.544161,10.986837,6.156165,27.522385
3.078984,10.202193,5.309096,2.274124,31.308617,10.801256,6.156047,27.559433
3.122027,10.198353,5.308809,2.300813,31.256048,10.746473,6.166094,27.505713
3.206630,10.258106,5.314778,2.347959,31.112545,10.673354,6.191443,27.468067
3.282169,10.377440,5.325858,2.387868,30.826443,10.601663,6.246947,27.280191
3.357341,10.416117,5.335295,2.421650,30.511778,10.530464,6.305764,27.276707
3.390004,10.423394,5.339456,2.436543,30.301262,10.492219,6.326572,27.371435
3.420055,10.428233,5.343284,2.450246,30.150536,10.477326,6.333765,27.418938
3.473368,10.378273,5.350047,2.474451,29.852230,10.418487,6.340029,27.467331
3.576169,10.293523,5.180611,2.503974,28.674122,10.213773,6.380261,27.398428
3.629069,10.280450,5.011466,2.511933,27.681608,10.028942,6.372719,27.246365
3.657995,10.297145,4.936895,2.529941,27.206882,9.937427,6.341472,27.123512
3.731622,10.411911,4.805164,2.553047,26.361021,9.787346,6.331326,26.715992
3.766892,10.436233,4.754920,2.559063,25.936209,9.666812,6.329061,26.475248
3.791765,10.462680,4.708693,2.560367,25.545361,9.540184,6.322659,26.275578
3.852316,10.368293,4.592151,2.516235,24.427065,9.184801,6.343957,25.727352
3.873724,10.345514,4.559522,2.505633,23.950819,9.053954,6.363197,25.625561
3.920912,10.323112,4.501927,2.454789,22.468962,8.752534,6.380426,24.797585
3.938363,10.573764,4.396963,2.473666,21.627199,8.616338,6.422866,24.595812
3.945952,10.722737,4.360504,2.490416,21.247459,8.549343,6.389329,24.484526
3.971816,11.048297,4.363569,2.530498,20.156546,8.339272,6.357472,24.044832
3.954619,11.133142,4.334101,2.543917,19.323278,8.266664,6.411770,23.745214
3.925385,11.152311,4.312434,2.549833,18.890171,8.236535,6.429764,23.610769
3.894392,11.116280,4.292499,2.555276,18.530235,8.208814,6.467020,23.486147
3.843451,11.025111,4.257283,2.570837,17.894396,8.174132,6.563915,23.286951
3.808927,10.978126,4.241758,2.577698,17.581028,8.196103,6.623404,23.214407
3.707739,11.267607,4.170654,2.561184,15.663698,8.279276,6.785925,22.644491
3.703180,11.345366,4.140486,2.561024,15.200075,8.240103,6.808485,22.624962
3.748784,11.398979,4.087194,2.560741,14.929932,8.317391,6.844992,22.937687
3.785542,11.454597,3.938981,2.537735,14.847818,8.452386,6.872137,23.312008
3.784875,11.477122,3.870694,2.520579,14.811619,8.511901,6.880625,23.478905
3.791926,11.548112,3.665953,2.325791,14.723486,8.664663,6.910195,23.729536
3.802547,11.597599,3.605884,2.266774,14.706928,8.695403,6.900514,23.823372
3.806396,11.615332,3.550618,2.212475,14.691692,8.738125,6.889834,23.838280
3.772990,11.851361,3.407822,2.067863,14.652913,8.865627,6.874849,23.760866
3.713359,12.268068,3.244213,1.928658,14.525289,9.083082,6.931571,23.923706
3.696661,12.414122,3.193431,1.879722,14.492011,9.170127,6.939073,24.024595
3.667791,12.616738,3.097244,1.793274,14.449668,9.284930,6.965009,24.298717
3.666909,12.701818,3.057792,1.755162,14.429291,9.322335,6.975641,24.571581
3.669282,12.789454,3.030080,1.720098,14.409000,9.356748,6.982719,24.879431
3.671315,12.899779,3.028974,1.660916,14.385818,9.451637,6.997358,25.196699
3.673350,12.946708,3.028486,1.636147,14.419514,9.539893,7.024222,25.201237
3.685414,13.019670,3.027626,1.622100,14.558904,9.716767,7.121838,25.248672
3.698350,13.143987,3.026897,1.610209,14.962509,9.881365,7.177931,25.438990
3.721698,13.538333,3.067098,1.581704,15.254363,10.048697,7.312380,25.803352
3.730604,13.601323,3.065914,1.559076,15.255062,10.068501,7.345095,25.961260
3.721181,13.608460,3.064824,1.538256,15.259199,10.085496,7.368282,26.083469
3.661709,13.625163,3.047014,1.485265,15.277302,10.135419,7.340587,26.388298
3.652187,13.633933,3.039605,1.473847,15.334789,10.161592,7.340837,26.473692
3.650970,13.677677,3.032204,1.457253,15.387681,10.196518,7.402326,26.698896
3.658282,13.763281,3.019129,1.427940,15.481113,10.272948,7.471740,27.145327
3.664776,13.805012,3.013365,1.415017,15.459999,10.299541,7.487836,27.326099
3.677131,13.862968,3.008062,1.405508,15.494344,10.323621,7.517611,27.532303
3.684738,13.894201,2.916160,1.370355,15.551472,10.206234,7.529144,28.090103
3.685407,13.790772,2.864158,1.335881,15.565249,10.157759,7.515790,28.142426
3.681602,13.493352,2.795364,1.248134,15.556705,10.016483,7.475416,28.377989
3.682777,13.426594,2.728159,1.192964,15.526452,9.975226,7.446010,28.503008
3.684077,13.365173,2.666327,1.142206,15.393348,9.912356,7.414377,28.623537
3.710925,13.287080,2.563191,1.052540,15.158213,9.784545,7.357048,28.823986
3.740643,13.314256,2.517722,1.013010,15.016012,9.720171,7.310191,28.898930
3.757853,13.381922,2.475888,0.973543,14.885180,9.646962,7.286308,28.959486
3.833279,13.587569,2.369408,0.873087,14.509293,9.386642,7.231502,29.124758
3.915653,13.424344,2.286482,0.781749,14.108742,9.102036,7.210549,29.345552
3.961636,13.281890,2.188812,0.704838,13.538416,8.701784,7.244071,29.318495
3.944028,13.240950,2.161317,0.683186,13.069313,8.494862,7.251606,29.109798
3.921724,13.203281,2.134918,0.663266,12.637718,8.288525,7.260099,28.894815
3.881477,13.049179,2.067725,0.612563,11.537718,7.774599,7.276406,28.432766
3.892638,13.072380,2.048809,0.598290,11.375330,7.690842,7.284199,28.274044
3.903344,13.105721,2.031406,0.585158,11.251641,7.633846,7.296567,28.132170
3.913957,13.147987,2.000663,0.561960,11.017298,7.537054,7.337418,27.955200
3.918635,13.176667,1.987109,0.551732,10.913984,7.492282,7.390655,27.947031
3.948640,13.155900,1.963166,0.533666,10.731477,7.436102,7.456505,27.879103
3.996925,13.045599,1.942899,0.518372,10.576988,7.317024,7.478987,27.700762
4.016246,12.941936,1.932852,0.511630,10.508880,7.279044,7.469696,27.753246
4.043287,12.773793,1.882407,0.499720,10.276462,7.131189,7.457642,28.001682
4.070049,12.671053,1.833649,0.489638,10.031131,7.004305,7.416097,27.987230
4.087930,12.608675,1.800600,0.485193,9.903464,6.957750,7.396746,27.875908
4.119451,12.684651,1.647538,0.468580,9.704638,6.729563,7.382068,27.560249
4.143075,12.823240,1.604450,0.447586,9.620626,6.613992,7.352308,27.472712
4.160707,12.967809,1.564806,0.428271,9.349367,6.494547,7.324630,27.354019
4.247402,13.231514,1.494776,0.395037,8.771096,6.273561,7.286627,27.314514
4.408662,13.529510,1.391991,0.367720,8.348543,6.111258,7.315865,27.328161
4.624869,13.993225,1.242325,0.319657,7.943107,5.926370,7.338542,27.093962
4.744045,14.333824,1.233649,0.318878,7.918880,5.893703,7.352057,27.009485
4.888757,14.723200,1.242305,0.318161,7.896591,5.882088,7.360146,26.988564
5.025829,15.152961,1.250269,0.317501,7.876084,5.849688,7.384688,27.052361
5.249924,15.875216,1.265439,0.312836,7.759081,5.786000,7.439553,27.145275
5.360811,16.184240,1.272655,0.309103,7.684464,5.740710,7.427413,27.066893
5.677519,17.109434,1.291022,0.302734,7.496132,5.591006,7.399825,26.773428
6.019434,17.968809,1.305326,0.292571,7.295928,5.584176,7.471806,26.530754
6.392498,18.697573,1.316466,0.294352,7.140008,5.612980,7.564962,26.522825
6.635861,19.182499,1.251780,0.344545,7.101537,5.713649,7.667554,26.533474
6.753768,19.422668,1.225417,0.366674,7.101218,5.764315,7.753514,26.536779
7.082275,20.098669,1.152224,0.422998,7.227046,5.932778,7.921678,26.823017
7.200389,20.299681,1.142192,0.438853,7.262467,5.977642,7.973753,26.918150
7.313008,20.437500,1.133547,0.453441,7.295056,6.043651,8.035973,26.997263
7.548363,20.931835,1.118678,0.490573,7.378006,6.226840,8.199554,27.128368
7.604218,21.120283,1.115629,0.501025,7.401358,6.262256,8.245737,27.209885
7.734729,21.826956,1.105683,0.535121,7.615757,6.410668,8.466683,27.702681
7.753756,22.267822,1.103720,0.548352,7.947782,6.553029,8.504790,27.945013
7.767811,22.594463,1.155193,0.554185,8.094160,6.648147,8.518442,28.076145
7.794099,23.626654,1.334888,0.576657,8.466740,6.933416,8.600414,28.532846
7.802965,24.315409,1.475825,0.598153,8.357861,7.042675,8.647978,28.839054
7.876179,24.920458,1.612624,0.616349,8.313415,7.180647,8.676084,29.312347
7.961960,25.625227,1.779472,0.638542,8.297411,7.317799,8.661855,30.218590
7.966331,25.811224,1.826442,0.644790,8.293702,7.352367,8.655907,30.540268
7.981442,26.033379,1.869656,0.650538,8.290291,7.349959,8.646522,30.826265
8.033019,26.623032,2.000582,0.676946,8.281608,7.337008,8.642593,30.856594
8.052905,26.743130,2.037438,0.684380,8.279163,7.335260,8.640003,30.813391
8.112297,27.171524,2.140407,0.730688,8.204884,7.293757,8.644029,30.940771
8.177982,27.281172,2.207289,0.789293,8.088188,7.257030,8.635659,31.271780
8.191058,27.247984,2.236774,0.815130,8.040045,7.247245,8.649399,31.518908
8.165729,27.145195,2.311825,0.880007,7.844746,7.188078,8.677467,31.757948
8.043027,26.969049,2.398148,0.913987,7.649981,7.100123,8.623272,31.702642
8.001206,26.865650,2.434450,0.953852,7.551219,7.075642,8.617769,31.701218
7.823281,26.299984,2.538781,1.060997,7.478837,7.055980,8.632081,31.759951
7.540888,25.143497,2.541468,1.167176,7.629089,7.039520,8.676419,32.176998
7.386022,24.454235,2.551934,1.231664,7.732752,7.042637,8.660014,32.457897
7.226922,23.776550,2.560795,1.302274,7.868141,7.082899,8.593996,32.643082
7.124957,23.392328,2.564701,1.343371,7.951474,7.075091,8.579279,32.710144
6.807471,22.301626,2.589783,1.451414,8.071159,6.982507,8.437749,32.584248
6.693317,22.007998,2.606511,1.480944,8.104853,6.959762,8.387431,32.479176
6.588306,21.677963,2.621901,1.508114,8.135851,6.938451,8.335272,32.392044
6.281983,20.725698,2.754864,1.666607,8.168946,6.807981,8.144089,31.920359
6.171642,20.406672,2.810271,1.728657,8.154323,6.761651,8.040550,31.734377
6.056668,20.085579,2.861247,1.785745,8.095092,6.707586,7.966894,31.499708
5.594959,18.902287,3.011363,1.971959,7.901892,6.558437,7.677795,30.976542
5.499019,18.629547,3.036513,2.009593,7.862845,6.505477,7.586423,30.957052
5.335588,18.008101,3.075422,2.088023,7.793868,6.411921,7.394573,30.975178
5.207759,17.595718,3.149673,2.206603,7.858231,6.356867,7.256086,30.920614
5.150903,17.384953,3.182408,2.258880,7.957159,6.338521,7.189950,30.887835
5.107279,17.158401,3.212525,2.306978,8.237787,6.321642,7.124884,30.798195
5.108923,16.721279,3.265729,2.391945,8.380024,6.229288,7.065582,30.693493
5.129426,16.495090,3.287288,2.430646,8.428187,6.237260,7.061038,30.665319
5.177145,14.706564,3.332573,2.567757,8.644495,6.384056,7.020937,30.256432
5.166575,14.264130,3.311773,2.591602,8.688623,6.377329,7.019880,30.198271
5.119424,13.567373,3.275030,2.633723,8.740880,6.314543,7.044793,29.844269
5.067955,12.907768,3.261536,2.669379,8.759465,6.268253,7.072266,29.239952
5.043694,12.591734,3.264025,2.685098,8.766411,6.260046,7.077390,29.002243
4.996628,11.670398,3.273451,2.720851,8.784087,6.247281,7.109076,28.548344
4.953367,11.119194,3.306710,2.746657,8.924067,6.251277,7.147477,28.487524
4.929345,10.934408,3.321373,2.763642,9.111289,6.280117,7.179243,28.543972
4.861247,10.584853,3.347275,2.832435,9.785494,6.472987,7.251588,28.551298
4.690268,10.142934,3.443548,2.840577,11.215246,6.966561,7.368190,28.228569
4.656518,9.860338,3.604337,2.915227,12.463057,7.391973,7.423334,28.240314
4.663905,9.723455,3.663367,2.989833,12.852658,7.570893,7.435201,28.267054
4.670701,9.602756,3.699720,3.072798,13.287724,7.787552,7.456506,28.291655
4.659276,9.365378,3.744408,3.190209,14.141007,8.134712,7.423385,28.465219
4.664183,9.318652,3.748782,3.253996,14.644447,8.321504,7.394083,28.540314
4.669367,9.297871,3.770283,3.312682,15.115958,8.490069,7.364812,28.590027
4.673325,9.197589,3.817836,3.401295,15.903849,8.818743,7.275576,28.244005
4.673964,9.240954,3.823912,3.438283,16.264683,8.980542,7.183335,27.823421
4.713707,9.498702,3.854438,3.459614,16.723251,9.221733,7.145237,27.192350
4.721821,9.570924,3.875704,3.452959,16.808598,9.269078,7.137204,27.106890
4.735851,9.661492,3.895269,3.446836,16.887121,9.297914,7.119084,27.069286
4.775553,9.891176,3.903185,3.431252,17.218748,9.366109,7.069593,27.136467
4.811697,10.088503,3.848637,3.380730,17.468697,9.479180,7.045428,27.274652
4.837461,10.183375,3.828315,3.321088,17.612768,9.525149,7.039845,27.335821
4.916084,10.629219,3.863658,3.174781,18.007963,9.622431,6.989895,27.479502
4.965194,10.962615,3.949057,3.095701,18.256495,9.674202,6.992838,27.335316
4.961180,11.093771,3.988298,3.060837,18.417671,9.716812,7.019534,27.336006
4.938035,11.434577,4.326430,2.905661,19.049469,10.240102,7.251397,28.422710
4.937155,11.478611,4.372836,2.870718,19.067036,10.352768,7.288571,28.602655
4.842968,11.488936,4.495880,2.781779,18.587181,10.681533,7.329971,29.136353
4.753536,11.556568,4.536107,2.793534,18.613239,10.775942,7.295301,29.392420
4.724299,11.660514,4.531451,2.828527,18.716196,10.766193,7.263086,29.498590
4.644979,12.007539,4.522611,2.921412,19.282635,10.861817,7.208940,29.663286
4.565229,12.162552,4.526905,2.963189,19.567408,10.904898,7.176195,29.803312
4.529562,12.233981,4.533145,2.981606,19.681555,10.927606,7.166666,29.934521
4.447999,12.416999,4.515221,3.028486,19.972095,10.948754,7.121236,30.301676
4.335266,12.651761,4.472547,3.075274,20.216175,10.937150,7.093364,30.195591
4.293811,12.695843,4.435448,3.048860,20.074150,10.861372,7.126208,29.718668
4.289224,12.659445,4.425004,3.028524,19.875004,10.804328,7.125148,29.546911
4.293484,12.653336,4.400338,3.009814,19.587248,10.719995,7.100252,29.373566
4.313842,12.741006,4.306148,2.982708,18.828489,10.390041,7.009940,29.038250
4.344528,12.956648,4.266088,2.942046,18.474350,10.283119,6.958664,28.788382
4.340153,13.051718,4.238097,2.881415,18.289459,10.180557,6.946348,28.760786
4.329156,13.241275,4.165255,2.687459,17.522161,9.821873,6.924591,28.628662
4.309923,13.273678,4.144749,2.606867,17.085213,9.685102,6.928591,28.574827
4.259542,13.367801,4.003430,2.354808,15.594676,9.260325,6.931423,28.197474
4.233100,13.389426,3.976542,2.304810,15.300236,9.196242,6.956782,28.128496
4.206562,13.408393,3.959157,2.258810,15.067756,9.138959,6.979754,28.161154
4.164552,13.404630,3.943161,2.216488,14.853863,9.138226,6.975284,28.225391
4.083745,13.431767,3.914905,2.141725,14.476016,9.127260,6.952136,28.399788
4.054914,13.414550,3.881420,2.108764,14.309437,9.117838,6.938689,28.471149
3.999178,13.360554,3.822268,2.050539,14.003163,9.130486,6.920569,28.647242
3.950766,13.365307,3.792354,2.001252,13.742802,9.161469,6.914477,28.799580
3.925904,13.393124,3.779166,1.999080,13.636635,9.158082,6.908794,28.827747
3.782581,13.402855,3.780369,1.923742,13.094732,9.024384,6.919229,29.154709
3.751342,13.341319,3.755539,1.907088,12.969679,9.009612,6.964274,29.247540
3.680605,13.236226,3.622710,1.864697,12.572571,8.957512,7.029687,29.395477
3.654790,13.216533,3.492728,1.841785,12.267819,8.877285,7.026452,29.079624
3.647155,13.214397,3.402741,1.824469,12.137768,8.813086,7.007425,28.760206
3.664465,13.294435,3.233241,1.750195,11.827168,8.610712,6.830184,27.965899
3.663353,13.276099,3.242195,1.734662,11.752541,8.560665,6.769497,27.735662
3.662329,13.256968,3.250433,1.729101,11.683880,8.496817,6.712779,27.489862
3.701024,13.251645,3.300209,1.757364,11.376260,8.310195,6.663255,26.705116
3.710438,13.010667,3.296775,1.625961,10.570115,8.087108,6.623612,26.118160
3.718134,12.914474,3.283472,1.557957,9.913366,7.853711,6.555809,26.028912
3.732119,12.861213,3.263139,1.503172,9.357440,7.658299,6.481994,25.914848
3.737841,12.843668,3.249827,1.494026,9.112350,7.570549,6.427482,25.838440
3.753348,12.874854,3.231297,1.519319,8.679395,7.414754,6.340716,25.622553
3.774309,12.907087,3.246616,1.540729,8.312905,7.283101,6.286975,25.429424
3.785092,12.921508,3.266027,1.550168,8.167813,7.270583,6.278811,25.409887
3.797812,12.959450,3.283360,1.566842,8.110274,7.265798,6.220550,25.370201
3.795730,12.988472,3.292937,1.580957,7.988884,7.245953,6.123727,25.484259
3.778892,13.193942,3.307320,1.603018,7.307916,7.064075,6.047280,25.740131
3.721025,13.154541,3.267275,1.591061,6.918351,6.986725,6.034925,25.715368
3.666969,13.059299,3.234664,1.567030,6.701693,6.922016,6.026970,25.705015
3.587311,12.946798,3.177057,1.524577,6.318961,6.807707,5.981963,25.554607
3.556128,12.902033,3.151659,1.505861,6.150228,6.764277,5.970488,25.472042
3.528345,12.860844,3.128293,1.488642,5.994986,6.723763,5.964448,25.395754
3.450441,12.734201,3.072799,1.444813,5.687942,6.591909,5.938519,25.233891
3.374495,12.602199,3.050819,1.413705,5.615144,6.548267,5.857451,25.135080
3.357832,12.498214,3.041129,1.399856,5.609472,6.524173,5.812319,25.101725
3.332830,12.306921,3.012096,1.375393,5.561034,6.457557,5.695784,24.958981
3.322678,12.108470,2.994488,1.354685,5.484686,6.297508,5.685145,24.617563
3.299685,11.905509,2.979583,1.337156,5.420059,6.160046,5.698788,24.372229
3.286019,11.727814,2.966966,1.322318,5.344426,6.016831,5.727274,24.137510
3.271277,11.652718,2.950906,1.315776,5.273401,5.953106,5.762800,23.978394
3.249262,11.438236,2.922536,1.284664,5.113402,5.830954,5.842518,23.748953
3.240652,11.311488,2.929058,1.261576,5.042865,5.816407,5.902716,23.645096
3.235033,11.180806,2.931360,1.240334,4.977966,5.803023,5.967933,23.456665
3.283823,10.945807,2.848184,1.186267,4.812781,5.762463,6.121689,23.343939
3.358645,10.869626,2.810339,1.157043,4.723496,5.737010,6.186792,23.404505
3.424661,10.826541,2.764180,1.121400,4.605621,5.674741,6.228436,23.678253
3.439749,10.768552,2.719737,1.102134,4.530901,5.592034,6.265917,23.775702
3.432767,10.725643,2.690737,1.093641,4.434711,5.498030,6.284090,23.799006
3.450253,10.683302,2.491807,1.094913,4.301410,5.299407,6.394414,23.919415
3.457691,10.656927,2.429749,1.094736,4.275328,5.251566,6.409842,24.126013
3.477251,10.675955,2.352722,1.072482,4.251330,5.187274,6.421651,24.365849
3.494572,10.678780,2.281853,1.052006,4.229252,5.128122,6.455261,24.584925
3.504799,10.694631,2.216650,1.035544,4.221091,5.063597,6.516787,24.803614
3.562611,10.754521,1.960985,0.957873,4.733085,4.865300,6.761475,25.451017
3.618059,10.766314,1.885053,0.920203,4.971597,4.809158,6.890763,25.614439
3.678423,10.761276,1.854260,0.881215,5.082410,4.803160,6.966991,25.758957
3.846492,10.886332,1.745261,0.781979,5.556306,4.888357,7.271770,26.220474
3.926281,10.979497,1.648483,0.728341,5.685987,4.855066,7.440168,26.297804
3.959595,11.061072,1.603192,0.704694,5.697722,4.842422,7.522613,26.376102
4.127961,11.407461,1.500406,0.644505,5.816578,4.942823,7.826545,26.341131
4.210062,11.512748,1.444850,0.611971,5.880820,5.005511,8.019245,26.411327
4.243179,11.536119,1.420357,0.597629,5.904401,5.037795,8.094320,26.558632
4.358213,11.866357,1.363060,0.550845,5.966137,5.066192,8.425091,26.954023
4.397445,12.041375,1.355150,0.541390,5.974990,5.078171,8.495136,26.986433
4.488004,12.580425,1.335016,0.539876,5.997526,5.057787,8.688678,27.156981
4.533956,12.747583,1.329348,0.543044,6.003870,5.035046,8.778240,27.299463
4.574866,12.901291,1.320151,0.545959,5.921608,4.995891,8.874315,27.427811
4.696754,13.458058,1.298889,0.590190,5.735647,4.935732,9.224194,27.734137
4.798584,13.678597,1.293964,0.608507,5.683472,4.912113,9.335909,27.806650
5.008055,13.960927,1.295452,0.628849,5.724872,4.915583,9.478922,27.898539
5.642697,14.698951,1.279538,0.684115,5.830252,4.961858,9.756505,28.320496
6.280948,15.663763,1.303658,0.790253,6.002609,5.102184,10.010760,28.638794
6.942901,16.815735,1.395691,0.902680,6.368992,5.268548,10.278288,29.131466
7.196032,17.296158,1.416400,0.960472,6.582724,5.314590,10.358405,29.322989
7.430752,17.812399,1.435454,1.013644,6.782861,5.356951,10.418441,29.491180
8.049949,19.313993,1.600002,1.194319,7.304736,5.496754,10.502405,29.630753
8.232308,19.766954,1.673690,1.251533,7.451648,5.539710,10.522628,29.700619
8.409223,20.244875,1.741486,1.306518,7.613587,5.579230,10.537116,29.767405
9.073401,21.458483,1.914050,1.446472,8.025775,5.766084,10.667044,29.953569
9.281054,21.797462,1.962628,1.485870,8.164787,5.835741,10.762295,30.141645
10.066685,23.018934,2.123682,1.607840,8.528955,6.113857,11.201929,30.679579
10.221134,23.274441,2.144208,1.616837,8.571498,6.168582,11.327290,30.836372
10.360466,23.531857,2.163094,1.625114,8.712928,6.218932,11.430247,30.872602
10.719812,24.086508,2.251973,1.643806,9.060762,6.374004,11.683151,30.873690
10.846317,24.240509,2.303052,1.647550,9.150922,6.424191,11.735327,30.833164
10.971463,24.424334,2.351653,1.650995,9.148158,6.473569,11.805560,30.885223
11.163142,24.743681,2.442470,1.657080,8.975217,6.566165,11.928518,30.894024
11.234932,24.844490,2.484884,1.659763,8.898973,6.619757,11.979089,30.840485
11.314664,25.001034,2.523908,1.662231,8.828826,6.669065,12.014554,30.767471
11.460018,25.538628,2.657819,1.638038,8.502867,6.740930,11.965932,30.536985
11.478306,25.602644,2.676866,1.637013,8.427164,6.726486,11.928847,30.627104
11.545314,25.716822,2.719627,1.706183,8.309819,6.726886,11.905299,30.799862
11.571362,25.760326,2.759263,1.847053,8.148731,6.656776,11.811522,30.907160
11.594139,25.819561,2.776737,1.931145,8.077713,6.628165,11.746641,30.961800
11.642602,25.978334,2.821214,2.150815,7.962188,6.558371,11.536136,30.982658
11.672726,26.058914,2.833735,2.216247,7.929667,6.536513,11.491479,30.916687
11.692262,26.145041,2.834522,2.276447,7.899746,6.510648,11.433827,30.852913
11.744000,26.082195,2.877888,2.382792,7.856068,6.440822,11.300532,30.665867
11.799174,25.879095,2.990475,2.589113,7.848452,6.386818,11.191134,30.845367
11.862690,25.644020,3.170898,2.831700,7.935252,6.448579,11.131739,31.096205
11.931300,25.323940,3.746334,3.440204,8.020533,6.499261,11.018774,31.175083
11.982204,25.082335,4.148232,3.768316,8.041388,6.534373,10.916384,31.256433
11.787087,24.886267,4.493165,4.043010,7.928184,6.549885,10.800258,31.275879
11.638138,24.796839,4.644954,4.162442,7.835435,6.540925,10.740859,31.187559
11.463748,24.716770,4.784607,4.272325,7.750103,6.513225,10.655137,31.083395
10.938791,24.230936,5.124070,4.502843,7.480670,6.392555,10.428415,30.633247
10.581402,23.679647,5.299735,4.615351,7.267099,6.280540,10.247343,30.385048
10.404323,23.411203,5.377180,4.664952,7.151084,6.239106,10.146212,30.218548
9.554241,21.646671,5.520272,4.701886,6.356316,5.930291,9.710992,29.726330
8.995066,20.401983,5.619733,4.680212,5.903775,5.747142,9.550465,29.392389
8.609323,19.647787,5.752855,4.684248,5.607768,5.621419,9.494064,29.068386
8.188618,18.943253,5.874307,4.757893,5.378645,5.477747,9.385236,28.698046
7.993713,18.634939,5.927851,4.794104,5.254656,5.414799,9.284610,28.404547
7.420986,17.763737,6.049041,4.910768,5.015141,5.235200,8.979672,27.630360
7.075839,17.294506,6.114545,4.975708,4.966007,5.130321,8.707333,27.138071
6.911983,17.067640,6.143423,5.004338,4.876847,5.085782,8.595313,26.863707
6.211540,16.135143,6.198924,5.126604,4.664392,4.973114,8.072825,26.015301
6.090215,15.930380,6.225435,5.167846,4.638032,4.946206,7.976380,25.851944
5.911830,15.564867,6.266303,5.251575,4.591467,4.857070,7.803651,25.704266
5.767052,15.148658,6.300897,5.322583,4.514272,4.817357,7.683186,25.685644
5.662044,14.773461,6.348580,5.380398,4.414170,4.778680,7.549999,25.589928
5.530585,14.299024,6.406737,5.446947,4.331366,4.762747,7.412853,25.624378
5.493698,14.323030,6.429056,5.420007,4.416337,4.821220,7.353484,25.579264
5.465673,14.360902,6.432589,5.395175,4.460954,4.861449,7.339456,25.567404
5.374777,14.341413,6.451181,5.205027,4.550937,4.957346,7.316481,25.454903
5.325721,14.200141,6.464170,5.096623,4.585794,5.020379,7.299579,25.368271
5.263496,13.958004,6.471444,5.006385,4.641990,5.068418,7.284255,25.269161
5.170310,13.732796,6.498607,4.930000,4.683776,5.117455,7.281295,25.270624
5.154732,13.625185,6.522547,4.866426,4.686910,5.144278,7.287862,25.292412
5.122363,13.371128,6.437569,4.505367,4.960246,5.256224,7.215471,25.160412
5.139153,13.271980,6.154061,4.100207,5.093763,5.374013,7.102895,25.156593
5.130042,13.234020,5.997123,3.895539,5.158758,5.421073,7.082392,25.188177
5.086438,13.164711,5.510806,3.397321,5.734671,5.607268,7.145418,25.589460
5.077186,13.133848,5.401793,3.291408,5.994930,5.667274,7.175748,25.694983
5.059447,13.036242,5.208655,3.116592,8.411539,5.901910,7.295554,25.956188
5.187230,13.162303,5.263806,3.100536,10.581685,6.112531,7.348190,26.035809
5.260338,13.297251,5.318647,3.096756,11.934415,6.238509,7.355381,26.282133
5.343492,13.346675,5.339593,3.114751,13.211832,6.477443,7.367863,26.586386
5.403924,13.352567,5.301240,3.130441,14.585948,6.727698,7.358183,26.816814
5.419273,13.289649,5.263567,3.132056,15.230821,6.848305,7.338598,26.938572
5.520951,12.941084,5.016998,3.099511,16.904528,7.165942,7.283462,27.374777
5.573214,12.808187,4.968312,3.069558,17.465370,7.312328,7.270622,27.575230
5.612879,12.708708,4.926130,3.034187,18.030281,7.468709,7.243823,27.744558
5.769320,12.401102,4.825240,2.920372,20.893745,7.987881,7.202757,28.661556
5.804704,12.364606,4.823246,2.913955,21.678202,8.087275,7.213521,28.828176
5.887296,12.226839,4.863587,2.906855,23.625860,8.336291,7.240738,29.286484
5.919225,12.124806,4.931425,2.914335,24.605637,8.416609,7.247548,29.655573
5.933403,12.092130,4.961332,2.917633,25.037588,8.463103,7.223232,29.794510
5.961314,12.018125,4.949032,2.901129,25.837402,8.586573,7.184109,30.017279
5.965638,12.051356,4.950876,2.866633,26.574471,8.827775,7.132890,30.004137
5.961665,12.108376,4.951690,2.870096,26.928186,8.907500,7.133900,29.915718
5.920600,12.191327,4.943544,2.875958,27.553036,9.050184,7.181739,29.776527
5.872672,12.338885,4.920906,2.949929,28.338114,9.217346,7.226248,29.492393
5.790996,12.157711,4.908993,3.034234,28.953619,9.338270,7.223568,29.239697
5.776658,12.017050,4.903897,3.065319,29.187782,9.330628,7.230554,29.146137
5.769357,11.859007,4.899209,3.090812,29.403221,9.328330,7.281170,29.133976
5.790315,11.346785,4.956744,3.234380,30.131548,9.389976,7.377438,29.316826
5.812247,11.067923,5.009681,3.363383,30.548092,9.417904,7.440571,29.358820
5.829919,10.947311,5.033297,3.416766,30.719757,9.435038,7.450149,29.358377
5.904971,10.673503,5.024066,3.552643,31.146488,9.536911,7.537233,29.395718
5.893296,10.599489,4.976932,3.590893,31.266613,9.564978,7.572553,29.346560
5.745943,10.330887,4.811651,3.755164,31.356684,9.447030,7.648583,28.847212
5.693244,10.269934,4.777331,3.792380,31.475817,9.442366,7.658998,28.796160
5.644976,10.203158,4.747908,3.831192,31.585424,9.449024,7.629209,28.753475
5.603669,10.085072,4.720837,3.869992,31.642939,9.433737,7.572100,28.684725
5.562291,10.018553,4.695931,3.905690,31.587709,9.398546,7.514872,28.631817
5.474192,9.833960,4.616776,3.904097,31.318779,9.374360,7.333678,28.572374
5.354140,9.506431,4.374995,3.772811,29.930492,9.345388,7.073663,28.619953
5.241777,9.304061,4.143761,3.647517,28.748569,9.308658,6.905906,28.733688
5.155821,9.161062,4.025986,3.585229,28.038300,9.282261,6.828856,28.788935
4.878624,8.999422,3.788981,3.367846,25.574286,9.109191,6.615281,28.412943
4.810540,9.046338,3.762967,3.341376,24.943552,8.972383,6.570250,28.246498
4.643647,9.323242,3.686858,3.312208,23.482069,8.679981,6.479108,27.948141
4.531425,9.603157,3.642694,3.296442,22.630621,8.546965,6.399133,27.736851
4.461007,9.742340,3.598108,3.289491,22.247187,8.481604,6.360190,27.705729
4.319671,9.962488,3.498416,3.254225,21.337177,8.240519,6.308768,27.653301
4.273348,10.046780,3.468669,3.234243,20.743277,8.135424,6.274171,27.583881
4.230729,10.144224,3.441299,3.213138,20.151239,8.041513,6.242340,27.480398
4.150002,10.465936,3.374631,3.132123,18.003250,7.743803,6.128097,27.162008
4.121562,10.688879,3.255605,3.028816,16.024733,7.610436,6.077529,26.940718
4.112145,10.853866,3.103407,2.930783,14.488704,7.597401,6.062216,26.548744
4.101012,10.886554,3.084299,2.903186,14.062249,7.611295,6.056682,26.543297
4.091904,10.916627,3.049527,2.877795,13.669891,7.624078,6.051591,26.497625
4.003402,10.882151,3.093214,2.793506,12.555941,7.461926,5.990350,26.510050
3.986507,10.884463,3.128524,2.767246,12.223983,7.416574,5.934724,26.559877
3.989709,10.851899,3.161011,2.752904,11.947388,7.380231,5.873244,26.666988
4.014705,10.982605,3.248635,2.683812,11.703773,7.439860,5.815701,27.165909
4.019255,11.034939,3.276453,2.659657,11.482106,7.448149,5.805260,27.298639
3.932761,11.213576,3.366041,2.646651,10.819553,7.442724,5.602946,27.705553
3.903350,11.284252,3.360576,2.618514,10.664766,7.421259,5.544011,27.748652
3.871778,11.343615,3.376669,2.562923,10.522357,7.394072,5.496969,27.812897
3.799165,11.541861,3.438381,2.421426,10.105103,7.314656,5.372334,27.973166
3.780708,11.617102,3.494085,2.381594,9.987643,7.272566,5.347942,28.035053
3.765308,11.688027,3.545335,2.344946,9.896577,7.243493,5.306481,28.112907
3.749520,11.853790,3.675783,2.248777,9.664781,7.183764,5.183982,28.767708
3.799389,11.939872,3.773779,2.191645,9.517045,7.140478,5.168878,29.576853
3.840460,12.012591,3.830153,2.161121,9.352209,7.077945,5.180241,29.938919
3.950997,12.187231,3.969511,2.118405,9.027677,6.966128,5.231264,30.444902
4.044198,12.208082,4.084765,2.092860,8.913306,6.870770,5.337170,30.560366
4.111808,12.195705,4.149676,2.070711,8.851486,6.807266,5.423126,30.630764
4.140019,12.212079,4.178292,2.060946,8.853548,6.756996,5.458999,30.671568
4.165975,12.222650,4.204621,2.051962,8.850782,6.710745,5.492003,30.781269
4.210047,12.233188,4.228845,2.053887,8.848238,6.670988,5.520359,30.984541
4.286339,12.202538,4.242619,2.057288,8.967006,6.625877,5.584681,31.348940
4.332582,12.140420,4.226939,2.057163,9.111724,6.629775,5.622303,31.498425
4.498797,11.855626,4.020601,2.039397,9.456599,6.641757,5.745056,31.990107
4.660017,11.523952,3.859905,1.960029,9.229457,6.575432,5.885888,32.400223
4.759738,11.211952,3.734754,1.904380,9.050968,6.464244,6.017390,32.950226
4.826193,11.150663,3.661349,1.874302,8.955426,6.412471,6.076407,33.103401
4.849356,11.141209,3.610409,1.860163,8.900471,6.374300,6.100559,33.204441
4.900461,11.049067,3.501554,1.839306,8.803391,6.342104,6.187891,33.503807
4.935359,10.968319,3.392053,1.825441,8.721213,6.333603,6.305758,33.698982
4.956603,10.933683,3.343777,1.819328,8.684984,6.310400,6.336269,33.749027
5.121922,11.050199,3.220901,1.800643,8.559715,6.259917,6.463708,34.234787
5.189868,11.172433,3.186309,1.804365,8.519183,6.247279,6.548440,34.544102
5.451250,11.583829,3.029724,1.842056,8.390625,6.106661,6.870338,35.153023
5.541339,11.710416,2.962360,1.852666,8.357170,6.080826,7.039081,35.276447
5.627971,11.868119,2.876269,1.862428,8.326389,6.052045,7.230002,35.408131
5.821901,12.136498,2.589403,1.836774,8.219804,5.974264,7.756985,35.831043
5.896750,12.202868,2.508648,1.823282,8.010862,5.912802,7.943130,36.014114
5.986827,12.284015,2.446991,1.839298,7.842147,5.873805,8.086359,36.155178
6.186608,12.624692,2.358344,1.816810,7.544105,5.842891,8.372539,36.524544
6.365337,13.024175,2.326214,1.797425,7.304338,5.852323,8.766045,36.845264
6.467535,13.243293,2.312049,1.788879,7.160132,5.843652,8.960443,37.073856
7.203467,14.514688,2.135634,1.755369,6.594691,5.816177,10.006040,38.263638
7.346741,14.826717,2.076109,1.750185,6.507226,5.812496,10.193629,38.501919
7.627084,15.372659,1.923824,1.756994,6.406919,5.792862,10.546552,38.953964
7.757874,15.720679,1.857535,1.762731,6.381349,5.777619,10.694647,39.032303
7.876169,16.086607,1.825216,1.815381,6.430299,5.795003,10.871157,38.978455
8.291903,17.445803,1.762990,1.942655,6.554895,5.852148,11.396328,38.739960
8.499224,18.261148,1.719450,2.002495,6.571297,5.940380,11.702736,38.778469
8.627946,18.661375,1.702388,2.023101,6.526441,5.927794,11.858723,38.804504
8.893897,19.565723,1.775895,2.100721,6.467762,5.971469,12.111472,38.817810
9.196110,20.537540,1.928522,2.232337,6.531291,6.078106,12.340963,38.885132
9.585918,21.775967,2.119432,2.416111,6.579457,6.208924,12.723376,39.156609
9.692726,22.129387,2.173175,2.470676,6.574297,6.255012,12.917005,39.157528
9.776949,22.519058,2.222621,2.510687,6.569550,6.294619,13.133147,39.012924
10.042100,23.686453,2.379744,2.637633,6.394274,6.411252,13.775626,38.660980
10.129455,24.063532,2.446043,2.707069,6.407586,6.482712,14.007463,38.566833
10.202609,24.414078,2.507042,2.770953,6.419835,6.548370,14.229788,38.473568
10.432009,25.529379,2.725641,2.908435,6.655175,6.726924,14.772103,38.623215
10.515064,25.823353,2.797272,2.943648,6.759368,6.780362,14.940499,38.699440
10.796565,26.922077,2.979596,3.040794,7.260317,7.013955,15.417675,38.560810
10.896610,27.208267,3.030922,3.081327,7.400852,7.084639,15.562722,38.497551
11.066706,27.677235,3.121591,3.152929,7.649656,7.201309,15.866597,38.462669
11.262873,28.267832,3.259579,3.227803,7.953837,7.286223,16.216320,38.427715
11.385726,28.639030,3.342548,3.264461,8.118251,7.273176,16.450916,38.741177
11.395779,28.804869,3.379127,3.280623,8.190734,7.260859,16.614883,38.851036
11.392266,28.949965,3.412780,3.295492,8.257422,7.257721,16.755587,38.944218
11.379029,29.109276,3.515659,3.337862,8.375230,7.217230,16.937166,38.674526
11.330836,29.317539,3.682400,3.473569,8.618201,7.194373,17.079792,38.481274
11.316133,29.536945,3.880831,3.772229,9.336816,7.183314,16.979702,38.243179
11.299613,29.616741,3.940616,3.863855,9.609091,7.188845,16.952127,38.145725
11.214165,29.857313,4.132775,4.121732,10.393190,7.295695,16.910566,37.372601
11.140913,29.853525,4.176612,4.169827,10.583603,7.307118,16.871742,37.066940
11.055727,29.803230,4.216945,4.255928,10.758790,7.357217,16.895391,36.783791
10.845683,29.384367,4.251832,4.554064,12.373410,7.576436,16.809622,35.899639
10.761108,29.223372,4.274746,4.636565,13.015823,7.679142,16.741472,35.560307
10.631215,29.007689,4.295829,4.712471,13.606872,7.778620,16.662157,35.144989
10.197054,28.408762,4.437061,4.966321,15.727180,8.201883,16.529789,34.230141
9.908041,27.929926,4.608284,5.177882,17.584877,8.469601,16.485453,33.726727
9.488422,27.244858,4.998790,5.476236,20.322439,8.921432,16.423018,32.941952
9.222881,26.600323,5.189884,5.564844,21.875406,9.153955,16.384735,32.553211
9.067595,26.222561,5.258454,5.598635,22.560051,9.235939,16.388702,32.227715
8.684040,25.247353,5.420760,5.684645,24.700121,9.391623,16.575850,31.285229
8.590984,24.948694,5.469448,5.708857,25.409575,9.442315,16.700279,31.060495
8.485367,24.652729,5.514243,5.731134,26.144308,9.488609,16.823929,30.918610
8.266877,23.729790,5.394367,5.641556,27.543213,9.456165,17.164244,30.686201
8.118044,23.283739,5.337930,5.615358,28.414970,9.450924,17.302071,30.567335
7.981112,22.873356,5.306308,5.591253,29.217028,9.457531,17.420362,30.404970
7.471892,21.053265,5.291121,5.509478,32.891785,9.854699,17.776928,29.764830
7.378575,20.668850,5.315764,5.508924,33.810944,9.904684,17.909981,29.735071
7.118432,19.694281,5.287952,5.404134,36.487305,9.932391,18.133579,29.807173
7.047647,19.397785,5.279480,5.369229,37.271637,9.963908,18.189856,29.742327
6.945547,19.006834,5.238697,5.337114,37.892803,9.978077,18.214136,29.544127
6.616833,17.932995,5.238302,5.278281,39.356335,9.978199,18.427158,28.862110
6.402243,17.148870,5.281951,5.246217,40.041561,9.969298,18.563251,28.547445
6.285320,16.851610,5.301194,5.220037,40.343655,9.989552,18.657112,28.459820
5.764976,15.553085,5.570007,5.151197,42.035133,10.267766,19.126312,28.235601
5.667075,15.313777,5.658880,5.169978,42.377781,10.349200,19.203182,28.096348
5.436013,14.547889,5.917870,5.286350,43.484112,10.629558,19.177664,27.637552
5.364212,14.330967,5.991876,5.308563,43.847198,10.739849,19.200880,27.551126
5.299793,14.131386,6.016534,5.323801,44.278091,10.877790,19.231764,27.486488
5.178411,13.610447,6.027857,5.227477,44.951820,11.138466,19.242786,27.182991
5.103242,13.471972,6.033944,5.154009,45.152775,11.250835,19.252859,27.015961
5.029616,13.328802,6.039545,5.061741,45.277206,11.376643,19.274441,26.948204
4.847539,12.891400,6.031811,4.826889,45.370861,11.678647,19.348515,27.165667
4.716858,12.396849,6.002107,4.608452,45.319382,11.777329,19.442661,27.459578
4.625906,12.028672,5.984170,4.226277,44.750347,11.581930,19.504183,27.591295
4.602136,11.973094,5.954109,4.100210,44.204826,11.489802,19.527271,27.598749
4.590813,11.978996,5.926452,3.984224,43.678776,11.365203,19.559586,27.587767
4.563098,12.060472,5.881451,3.709005,42.272141,11.045694,19.514986,27.428852
4.559951,12.068307,5.826766,3.570884,41.687057,10.920349,19.406591,27.334864
4.557961,12.054200,5.776452,3.443805,41.191799,10.809784,19.312168,27.249714
4.544046,11.992838,5.715648,3.326887,40.598244,10.721130,19.231245,27.139570
4.521794,11.876927,5.513384,3.086758,39.398354,10.502632,19.138119,26.907043
4.488093,11.796507,5.159224,2.670010,37.027889,10.043485,18.919146,26.501297
4.478849,11.653265,5.024122,2.513388,36.222744,9.890413,18.703455,26.398951
4.453298,11.615355,4.957899,2.444339,35.826889,9.813263,18.618855,26.397251
4.392024,11.535855,4.837867,2.372000,35.045586,9.657658,18.304852,26.547907
4.359210,11.505177,4.801093,2.340107,34.605507,9.581415,18.107033,26.651478
4.329018,11.483231,4.800032,2.336097,34.066109,9.525479,17.919174,26.743641
4.248611,11.380809,4.876678,2.277678,32.327095,9.234674,17.413561,26.997675
4.219516,11.296831,4.907585,2.227557,31.639126,9.031312,17.073153,27.149305
4.208130,11.323020,4.906582,2.196575,31.337887,8.946817,16.825907,27.142559
4.204556,11.506204,4.867635,2.112317,29.834900,8.801734,15.984673,27.157879
4.205971,11.524881,4.850871,2.091217,29.251476,8.805453,15.718668,27.144871
4.178819,11.547968,4.808202,2.047773,27.753727,8.809606,15.029774,27.252237
4.192774,11.577691,4.796189,2.037179,27.406174,8.807102,14.791926,27.307394
4.206931,11.585368,4.738197,2.030811,27.227196,8.840964,14.602392,27.367252
4.241369,11.635562,4.610249,2.019562,26.911032,8.871262,14.202000,27.446981
4.318539,11.836668,4.501942,2.025988,26.824242,8.872617,13.793050,27.540642
4.366418,11.953743,4.434464,2.045447,26.785980,8.862445,13.605259,27.564695
4.494009,12.290409,4.208937,2.096367,26.555954,8.737642,13.042857,27.525284
4.625559,12.559078,3.836458,2.054733,26.856073,8.530559,12.581722,27.511797
4.708955,12.674459,3.616768,1.984553,26.951395,8.366214,12.312400,27.588137
4.763660,12.754087,3.430870,1.925014,26.913721,8.263270,11.996964,27.618681
4.791494,12.829344,3.349273,1.898702,26.833069,8.177935,11.855985,27.641575
