4.821343,9.982101,8.838050,3.580840,5.823970,7.209892,6.292539,42.726013
4.772598,10.155707,8.985340,3.591772,5.745075,7.109900,6.297123,43.293358
4.750199,10.366412,9.109890,3.658954,5.650896,6.962710,6.286699,43.702057
4.739028,10.506092,9.223547,3.732912,5.468414,6.774078,6.247454,43.628452
4.697118,10.640048,9.355085,3.823116,5.143037,6.545554,6.275242,43.177357
4.612088,10.678799,9.367218,3.828672,4.889632,6.404226,6.245823,43.024551
4.605714,10.729752,9.345085,3.806034,4.796156,6.388098,6.253843,43.123405
4.588556,10.897163,9.331335,3.766043,4.631027,6.363785,6.311308,43.284866
4.587729,10.942104,9.340259,3.764081,4.522424,6.330317,6.332495,43.349243
4.586059,10.978584,9.326570,3.762276,4.422504,6.297368,6.330801,43.419987
4.574648,11.061109,9.217228,3.759089,4.245994,6.239907,6.358984,43.752697
4.615783,11.146583,9.123844,3.779083,4.096580,6.141139,6.343607,44.105232
4.632525,11.166505,9.055767,3.802961,4.030709,6.081791,6.323722,44.229347
4.528195,11.249310,8.842761,3.875875,3.852633,5.966146,6.313996,43.742348
4.497271,11.253262,8.833898,3.900179,3.808381,5.929099,6.327522,43.432926
4.469087,11.243378,8.795194,3.949135,3.769292,5.869513,6.346026,43.176193
4.440008,11.238393,8.759585,3.998337,3.733328,5.814691,6.363051,42.946079
4.400837,11.238228,8.726824,4.043607,3.700240,5.776633,6.378127,42.732635
4.344525,11.242436,8.688329,4.099442,3.720500,5.751411,6.392250,42.400013
4.333974,11.285838,8.633430,4.123283,3.810071,5.742925,6.437233,42.088139
4.327041,11.304974,8.598472,4.131064,3.834299,5.707622,6.459623,41.965778
4.309084,11.315432,8.566307,4.138224,3.963375,5.662665,6.464894,41.780739
4.280606,11.339378,8.495062,4.150870,4.269289,5.656016,6.548871,41.137516
4.238072,11.349066,8.433066,4.161575,4.528239,5.638129,6.602897,40.357185
4.209553,11.380329,8.405735,4.166295,4.642403,5.629230,6.626371,40.033417
4.165533,11.487724,8.133461,3.946265,4.824498,5.637815,6.651302,39.443554
4.141937,11.623386,7.661420,3.759765,4.960629,5.620000,6.656866,38.918961
4.125318,11.678638,7.462468,3.675961,5.020644,5.605071,6.656768,38.733425
4.103249,11.727505,7.209857,3.597636,5.075860,5.592628,6.652372,38.521156
4.053333,11.786433,6.688762,3.511439,5.173402,5.594456,6.659428,37.920074
4.028081,11.872468,6.383526,3.492871,5.216404,5.591086,6.662538,37.645405
3.979847,12.029423,5.772238,3.428294,5.369112,5.602993,6.636141,36.782612
3.913679,12.242661,5.259926,3.377429,5.509279,5.670518,6.571165,35.894630
3.879395,12.334039,5.034066,3.355005,5.576298,5.755279,6.545677,35.499580
3.830953,12.543672,4.621841,3.314516,5.757568,5.976645,6.495909,34.789612
3.800262,12.666990,4.221714,3.300423,5.897443,6.273857,6.427650,34.236248
3.789296,12.630799,4.045312,3.294210,6.019351,6.441232,6.391800,33.960037
3.817305,12.588372,3.690966,3.283235,6.218023,6.938978,6.347157,33.084122
3.839731,12.480450,3.399196,3.263027,6.405912,7.586949,6.326867,32.174877
3.849618,12.432979,3.274482,3.254118,6.528359,7.979650,6.328149,31.685966
3.856843,12.416049,3.159741,3.245922,6.642564,8.363847,6.308578,31.380232
3.867137,12.406200,3.073280,3.238380,6.766234,8.759971,6.310100,31.187368
3.890794,12.329931,2.933172,3.159100,6.963261,9.710390,6.300360,30.627840
3.902944,12.251559,2.812387,3.049759,7.347876,11.027776,6.380800,30.197248
3.898052,12.208296,2.762031,3.016330,7.630867,11.747956,6.420482,29.996826
3.892195,12.168491,2.715702,2.985573,8.042258,12.501605,6.467462,29.806807
3.898882,12.121266,2.673077,2.957276,8.570586,13.243408,6.523235,29.633928
3.912066,12.051997,2.650959,2.909649,9.503895,14.749899,6.637255,29.271338
3.913048,12.053360,2.726127,2.889782,9.915359,15.447701,6.684186,29.049667
3.889193,11.933279,2.853593,2.884810,10.684408,17.139547,6.779438,28.486374
3.864050,11.844172,2.963151,2.956483,11.889716,18.895111,6.805961,28.212294
3.854351,11.812691,3.014591,2.995358,12.690371,19.770134,6.834069,28.053989
3.842685,11.762866,3.105461,3.127218,14.344419,21.802099,6.936426,27.653540
3.826356,11.737667,3.182381,3.320611,16.017124,24.117365,7.043994,27.803486
3.829526,11.738265,3.216292,3.439782,16.933626,25.279861,7.143247,27.937716
3.858680,11.744044,3.244576,3.538241,17.899578,26.455513,7.204657,28.168135
3.913359,11.700501,3.294538,3.799190,19.732496,28.849468,7.332629,28.542114
3.938166,11.657123,3.265465,3.935607,20.772926,30.103657,7.438481,28.711792
4.058118,11.609150,3.214105,4.323033,22.995060,32.713013,7.725154,29.187981
4.212693,11.596596,3.239461,4.787905,25.457111,35.418350,8.198149,29.989706
4.362358,11.571528,3.253688,5.042245,26.621862,36.773590,8.481300,30.524616
4.697239,11.533153,3.563071,5.578969,29.099794,39.346043,9.050653,31.556871
5.098552,11.588516,3.913388,6.617325,31.625740,41.939442,9.632265,32.462154
5.505531,11.653915,4.298719,7.880316,34.038925,44.392246,10.243874,33.190838
5.983522,11.751824,4.680704,9.593246,36.405464,46.989380,10.925906,34.124680
6.449833,11.716162,5.042447,11.515577,38.825676,49.509850,11.810630,35.330353
6.682638,11.700978,5.278231,12.444823,40.098614,50.822346,12.287151,36.040291
7.173320,11.645236,5.881448,14.229459,42.499306,53.535172,13.505556,37.476028
7.767893,11.566338,6.424973,15.959908,44.959015,56.222633,14.707035,38.761147
8.098375,11.548962,6.717810,16.918039,46.113754,57.551773,15.262390,39.390438
8.836669,11.427545,7.510439,18.864779,48.583435,60.159016,16.334360,40.939335
9.739145,11.326138,8.587554,21.107882,51.098080,62.648457,17.346668,42.623638
10.147127,11.256534,9.127613,22.319889,52.410389,63.856213,17.824600,43.403419
10.978158,11.114132,10.111276,24.871931,55.100727,66.140366,18.818174,44.869843
11.834788,11.158497,11.040811,27.540064,57.820412,68.216522,19.761681,46.361675
12.272547,11.147783,11.452445,28.803745,59.193916,69.314430,20.235975,47.144268
13.722196,11.134459,12.534638,32.434254,62.911705,72.275932,21.516842,49.437859
14.151097,11.123255,12.888501,33.622379,64.088669,73.270767,21.989719,50.219513
14.545259,11.088431,13.261094,34.735844,65.308029,74.139267,22.453529,50.976135
15.581167,10.949284,14.626311,38.320625,68.826508,76.630325,23.841345,52.787861
16.305687,10.872331,15.548862,40.606873,71.269379,78.293472,24.724346,53.786087
16.633505,10.895212,15.983248,41.623066,72.411469,78.830444,25.138313,54.311058
17.883274,11.030813,17.164583,44.783783,75.310265,80.000694,26.276777,56.180264
18.359447,11.141565,17.604967,45.786755,76.151070,80.341949,26.755363,56.770535
18.804449,11.267241,18.012215,46.757240,76.798027,80.607971,27.290903,57.354263
19.746960,11.581975,18.748438,48.946068,78.372337,81.332764,28.509993,58.607460
20.556095,11.899870,19.670752,51.308220,80.251228,81.991753,29.737108,59.740623
20.940535,12.023596,20.168081,52.414310,81.138000,82.179688,30.351147,60.149761
21.755188,12.292272,21.037893,54.399548,82.448097,82.472267,31.488119,61.205769
22.123514,12.412906,21.431013,55.465870,82.967148,82.682945,32.043858,61.784931
22.532646,12.545421,21.837589,56.560982,83.554390,82.773468,32.549973,62.374645
23.382334,12.812292,22.596664,58.386806,84.589500,82.665451,33.432903,63.210819
24.138479,13.055328,23.414064,59.896580,85.462227,82.268082,34.154198,63.736259
24.468424,13.155912,23.803881,60.753178,85.801575,81.968452,34.439354,63.931290
25.097010,13.404335,24.551573,62.614643,86.386345,81.291458,34.903400,64.119019
25.816133,13.604913,25.248053,64.525208,86.576256,80.601265,35.147865,64.478859
26.229849,13.671656,25.559530,65.317902,86.600174,80.174774,35.212490,64.686592
26.658489,13.723735,25.813564,66.170387,86.620415,79.792999,35.227428,64.795113
27.349880,13.805524,26.368315,67.640411,86.534615,79.196281,35.208645,64.769562
27.621983,13.861025,26.539536,68.435989,86.462517,79.070312,35.153316,64.755371
28.187737,13.940241,26.943939,70.082893,86.349838,78.873413,35.162674,64.940887
28.690260,13.981370,27.255869,71.243233,86.269104,78.854034,35.306194,65.414940
28.892563,13.984138,27.396679,71.750259,86.306099,78.838203,35.337799,65.580757
29.071714,14.021467,27.619320,72.179459,86.337410,78.708351,35.341469,65.759933
29.586863,14.058203,28.073919,73.105682,86.523430,78.350800,35.021828,66.105408
29.936304,14.050159,28.206846,73.850174,86.737106,77.999702,34.474365,65.922417
30.218353,14.025456,28.366585,74.257248,86.756218,77.802277,34.114742,65.926895
30.704422,14.017473,28.825272,75.127892,87.101898,77.093361,32.352558,65.868851
30.519033,14.015710,28.497473,74.686226,87.011978,76.841591,31.905033,65.572350
30.412287,14.003628,28.167406,74.077065,86.947533,76.785507,31.603556,65.536224
30.297707,14.013301,28.062283,73.740616,86.922523,76.831673,31.437778,65.423264
30.183548,13.896477,27.783962,72.927010,86.883430,76.977646,31.150345,65.402245
29.940540,13.766174,27.562626,72.292374,86.817627,77.190697,30.792017,65.253494
29.773813,13.698985,27.447819,71.994781,86.895119,77.252106,30.642220,65.090012
29.574265,13.668016,27.277182,71.434158,86.944916,77.348564,30.243658,64.931763
29.561617,13.791979,27.005354,70.988869,87.085175,77.478630,29.746416,65.075348
29.561674,13.787411,26.852558,70.770691,87.187523,77.651436,29.524225,65.208740
29.506365,13.857331,26.451036,70.295975,87.072128,77.618874,29.051422,65.361023
29.354033,13.877100,26.168583,70.298927,86.980339,77.622406,28.832029,65.443115
29.242928,13.879584,26.062824,70.291672,87.069702,77.715530,28.746845,65.358284
28.879137,13.895799,25.931654,70.141602,87.266205,77.655159,28.459505,65.098007
28.539118,13.766398,25.638819,69.861656,87.387810,77.719910,27.839069,65.284126
28.399483,13.667836,25.483538,69.665550,87.434898,77.809578,27.424747,65.418228
28.221102,13.405390,25.033916,69.223732,87.508492,77.868904,26.529171,65.682930
28.076653,13.167172,24.572338,68.763069,87.597397,77.771240,25.550611,65.871964
27.946180,13.047946,24.403584,68.563049,87.646240,77.693550,25.109705,65.893990
27.663927,12.816287,24.234762,67.974411,87.442062,77.489189,24.276941,65.699738
27.356377,12.548475,24.096731,67.153229,86.778130,77.193192,23.540504,65.684288
27.130209,12.412229,24.019646,66.824150,86.283478,76.954117,23.226261,65.569557
26.712530,12.206895,23.842833,66.285118,85.635818,76.669456,22.668402,65.359245
26.358953,12.026396,23.687675,65.388023,84.770546,76.592308,22.230366,65.079109
26.146902,11.904461,23.560196,64.811325,84.228867,76.688278,22.062893,65.040993
25.898256,11.810796,23.442909,64.124260,83.651077,76.663918,21.908810,64.964104
25.277269,11.689972,23.235081,62.895878,82.706291,76.615372,21.703310,64.695160
24.916418,11.661071,23.143457,62.274612,82.085701,76.417999,21.589138,64.610207
24.246925,11.592668,22.992718,61.071934,80.740883,75.615540,21.271044,64.424583
23.894329,11.693441,22.924347,60.359066,79.999359,75.037170,21.119223,64.304016
22.839996,12.194451,22.478529,57.989037,77.475449,72.848419,20.460630,63.887108
22.172115,12.524372,22.279432,56.260506,75.613846,71.266212,19.908733,63.460121
21.530464,12.770840,21.940763,54.389748,73.689713,69.652756,19.583206,63.071056
21.266922,12.887383,21.812523,53.459862,72.772408,68.887688,19.446568,62.843708
20.793108,13.129648,21.679956,51.456844,70.756470,67.160797,19.383602,62.637535
20.131832,13.335113,21.321491,49.458351,68.663155,65.434563,19.334110,62.422882
19.802490,13.442334,21.058437,48.480267,67.683907,64.519188,19.350882,62.253311
19.272518,13.562584,20.762138,46.788757,65.711693,62.699852,19.484716,62.193119
18.789467,13.629984,20.584057,45.016056,63.536839,60.891834,19.645481,62.199814
18.585711,13.632336,20.501129,44.223167,62.487209,59.991760,19.664305,62.178158
18.258463,13.634364,20.201790,42.732628,60.289921,58.005978,19.679724,62.232376
17.973251,13.615238,19.895060,41.023800,57.922169,55.849361,19.657858,62.238178
17.782454,13.595105,19.789660,40.224255,56.679176,54.783394,19.645021,62.267784
17.369076,13.603678,19.760975,37.691662,52.837830,51.364319,19.948347,62.544277
17.209642,13.608035,19.750570,36.936230,51.524628,50.234089,20.036409,62.669636
17.008144,13.586330,19.882694,36.232330,50.270985,49.055923,20.119112,62.706039
16.547001,13.392816,19.969900,34.729698,47.819080,46.680126,20.377069,62.498631
16.074650,13.185835,19.955750,33.102360,45.231606,44.222099,20.635569,62.308388
15.898335,13.064646,19.891685,32.291233,44.027618,43.032410,20.820854,62.230305
15.456756,12.702988,19.669188,29.680290,40.443615,39.837807,21.025721,62.377010
15.289263,12.570370,19.565861,28.724369,39.230698,38.801598,21.021118,62.589432
15.157060,12.440720,19.549370,27.889679,37.972473,37.850246,21.022095,62.865005
14.839665,12.234865,19.819061,26.366602,35.626598,36.038055,20.964962,63.007954
14.391333,12.111474,20.101717,24.975674,33.543030,34.039387,20.853119,62.660233
14.132991,12.072183,20.306488,24.156067,32.428085,32.948399,20.829275,62.457355
13.657672,11.940789,20.525974,22.638369,30.478916,30.992346,20.884909,62.186306
13.490208,11.866220,20.449690,21.897112,29.486084,30.115324,20.964502,62.316559
13.369921,11.808409,20.379507,21.209160,28.518044,29.240320,21.070587,62.450035
13.148269,11.763968,20.087818,20.056238,26.674623,27.604500,21.378880,63.037483
12.877222,11.813714,20.143847,19.181808,25.069191,26.081968,21.653000,63.374275
12.765730,11.817714,20.206724,18.793903,24.541945,25.348600,21.757288,63.542694
12.575419,11.802068,20.224735,17.997997,23.483389,23.919327,21.908854,63.986595
12.384965,11.786972,20.300121,17.216326,22.805059,22.457773,22.012589,64.416702
12.295062,11.784651,20.341976,16.867746,22.568541,21.562769,22.029322,64.536346
12.223200,11.775158,20.381247,16.568888,22.350929,20.681881,22.053917,64.643059
12.101634,11.716798,20.438637,15.933521,21.736725,19.021080,22.006178,64.862434
12.063610,11.674199,20.463940,15.613340,21.446795,18.289112,22.018473,65.025887
12.031451,11.582182,20.359941,14.988588,20.942822,17.021406,22.078520,65.242165
12.056433,11.249151,20.179590,14.432581,20.516005,15.955302,22.230629,65.261566
12.102401,11.083444,20.088751,14.230231,20.267076,15.466792,22.291878,65.334068
12.180950,10.709661,20.053928,13.847360,19.721502,14.589054,22.317661,65.471336
12.242456,10.468334,20.242952,13.583452,19.156237,13.789308,22.274776,65.346458
12.245983,10.352205,20.370985,13.512350,18.877186,13.435469,22.221073,65.226624
12.185786,10.154391,20.525127,13.250528,18.237610,12.760273,22.035723,64.858589
12.077549,10.013564,20.652975,12.980077,17.704702,12.194798,21.744556,64.114861
12.022392,9.955889,20.694956,12.860844,17.469763,11.940834,21.629942,63.748550
11.915084,9.844059,20.794033,12.642549,16.892521,11.375820,21.320358,63.401535
11.882315,9.801579,20.762651,12.522626,16.638035,11.105931,21.175783,63.339687
11.816759,9.716965,20.698500,12.310778,16.188480,10.552791,20.952133,63.132534
11.773976,9.635352,20.645620,12.131452,15.782932,10.044313,20.669323,63.046829
11.684163,9.561255,20.657265,11.979655,15.372413,9.587370,20.389704,62.935490
11.621372,9.528587,20.662931,11.914145,15.191428,9.388132,20.182766,62.812450
11.459994,9.380775,20.576359,11.775785,14.870401,9.050881,19.736021,62.526176
11.284855,9.205197,20.544819,11.696456,14.596142,8.771088,19.176117,61.911510
11.225511,9.164853,20.586004,11.636136,14.519970,8.650643,18.918211,61.609318
11.110914,9.143367,20.470726,11.469982,14.347193,8.445015,18.374559,60.911140
11.009136,9.154821,20.477093,11.327979,14.124373,8.555769,17.841398,60.350971
10.951339,9.180713,20.480749,11.253621,14.026140,8.729090,17.515228,60.018230
10.779675,9.250189,20.494759,11.078517,13.852609,9.168384,16.804737,59.412830
10.640541,9.436644,20.436216,10.864726,13.705717,9.718306,16.129230,58.805328
10.581717,9.545486,20.418200,10.773911,13.646803,10.066977,15.838666,58.428764
10.444222,9.713667,20.005873,10.506189,13.435196,10.632248,15.346461,57.583904
10.342541,9.888753,19.501213,10.236654,13.025452,11.044897,14.960398,56.950081
10.301543,9.965144,19.289129,10.151550,12.833657,11.261640,14.791463,56.631145
10.203879,10.084595,18.766354,9.957911,12.273566,12.090255,14.409977,55.962051
10.015722,10.191463,18.335939,9.730307,11.896914,13.063967,14.011694,55.017181
9.918057,10.226074,18.146996,9.658103,11.927427,13.596718,13.776800,54.438694
9.749679,10.291858,17.851246,9.363554,12.067483,14.656764,13.219263,53.070431
9.592911,10.284421,17.227087,8.985502,12.185499,15.881413,12.635876,51.838181
9.498590,10.264214,16.610233,8.587889,12.059323,17.321180,12.197716,50.757317
9.422662,10.255251,16.122854,8.327875,11.844358,18.922880,11.873555,49.579090
9.361509,10.235141,15.840470,8.103995,11.670428,20.475670,11.639455,48.548538
9.322330,10.229637,15.720207,7.977843,11.592365,21.209503,11.530412,48.050625
9.262964,10.224574,15.632148,7.904746,11.520544,21.913879,11.421186,47.505669
9.158701,10.214604,15.490796,7.771587,11.432915,23.563374,11.204571,46.509361
9.006297,10.205235,15.391007,7.701039,11.530012,25.364889,11.022246,45.577515
8.801181,10.113205,15.312486,7.658230,12.065475,27.144245,10.812396,44.611649
8.506538,9.975199,15.212379,7.468492,13.047684,28.900240,10.642409,43.444252
8.391491,9.917641,15.058128,7.406101,13.726254,29.892242,10.625353,42.875816
8.236233,9.778498,14.651934,7.198684,15.344329,31.823132,10.585477,41.906357
8.131044,9.759143,14.236460,6.928447,16.893044,33.794533,10.509033,41.083542
8.113660,9.739763,14.006208,6.809309,17.592487,34.744423,10.470907,40.764286
8.083570,9.678690,13.574292,6.669642,19.157061,36.613548,10.419433,40.166210
8.081967,9.613083,13.152681,6.573704,20.604214,38.754311,10.308652,39.440441
8.039829,9.593888,12.895415,6.525494,21.273506,39.908951,10.302531,39.012386
7.930294,9.534171,12.440946,6.604196,22.643572,42.140072,10.221067,38.061863
7.829721,9.631576,12.115941,6.852504,24.239040,44.594704,10.093765,36.966927
7.822397,9.734284,12.000996,7.193931,25.136600,45.881577,10.048214,36.508373
7.923306,9.979768,11.788913,8.241917,28.030130,49.847038,10.217658,35.604755
8.033799,10.124411,11.708676,8.899817,30.128180,52.564594,10.611894,35.556938
8.101216,10.181727,11.771033,9.214541,31.192822,53.841591,10.815685,35.689163
8.225469,10.255333,11.816483,9.600110,32.321541,55.109470,11.031767,35.963581
8.327420,10.329760,11.869110,10.139869,33.472717,56.414780,11.222151,36.343685
8.547424,10.459368,12.088699,11.306418,35.775196,59.060616,11.649211,37.163578
8.773645,10.676137,12.468328,12.780920,38.285000,61.490070,12.247324,38.079453
8.917632,10.787161,12.727844,13.563194,39.459881,62.630039,12.582271,38.473701
9.060995,10.875241,13.018171,14.368768,40.688812,63.729904,12.918126,38.916851
9.280416,10.953579,13.537401,16.292082,43.278553,65.836990,13.650003,39.580238
9.485294,11.036766,14.077473,18.389624,45.908493,67.590683,14.415946,39.909412
9.587438,11.054831,14.312827,19.330893,47.223587,68.466988,14.756203,40.140266
9.997676,11.179480,14.929521,21.471983,49.951641,70.132828,15.537411,40.795620
10.311922,11.265669,15.208002,22.575144,51.257496,71.017036,15.935750,41.169769
10.791290,11.319829,15.611323,23.544094,52.553043,71.916664,16.329788,41.673794
11.342331,11.416956,16.007751,24.597107,53.883472,72.630638,16.862137,42.236435
12.433158,11.600006,16.695358,26.707819,56.361359,74.105965,17.876293,43.278248
12.999858,11.694963,17.066313,27.821367,57.353146,74.758133,18.374386,43.809334
13.933132,11.818691,17.821951,30.070358,59.164055,75.978439,19.494633,44.833103
14.918800,12.040415,18.481869,32.275143,61.105099,77.303368,20.800583,45.907833
15.404481,12.140047,18.802383,33.412251,62.169502,77.814354,21.524187,46.462234
16.482519,12.282184,19.412134,35.703060,64.193237,78.650383,23.095409,47.606152
17.761454,12.456090,19.878925,37.602081,66.108032,79.483208,24.793650,48.906754
18.352892,12.573178,20.216595,38.548531,67.036728,79.874153,25.598162,49.566654
19.433977,12.783480,21.063320,40.567417,69.054039,80.676346,27.100677,50.729786
20.635675,13.233083,22.139730,42.690201,71.235069,81.642838,28.533804,52.002140
21.219997,13.469378,22.676075,43.760113,72.383369,82.110939,29.265488,52.502449
22.252550,13.878309,23.684931,45.939228,74.472099,82.838928,30.602116,53.361393
23.283926,14.277593,24.933268,48.023403,76.295212,83.582512,31.739988,54.279301
23.807110,14.450188,25.658464,49.163002,77.093277,83.986160,32.302311,54.738213
24.894945,14.853765,27.026518,51.403549,78.408775,84.668732,33.472477,55.632294
25.941519,15.239569,28.239689,53.475784,79.442642,85.226318,34.458336,56.683140
26.418945,15.387575,28.807199,54.443127,79.994545,85.332466,34.910130,57.186436
27.304857,15.607383,29.867577,56.455578,81.288757,85.461990,35.769676,58.274696
28.116949,15.824551,30.881742,58.440411,82.331642,85.616302,36.535057,59.454334
28.577877,15.920293,31.466812,59.339043,82.780617,85.634888,37.033997,60.144669
29.635315,16.065529,32.500351,61.152466,83.930595,85.654633,37.913719,61.456219
30.833452,16.235126,33.466454,63.087238,85.155411,85.864693,38.861546,62.731144
31.406431,16.318016,33.914730,63.985199,85.553772,85.933884,39.462601,63.361668
32.258671,16.333820,34.620949,65.401924,86.187408,85.788422,40.511078,64.402954
33.182701,16.345228,35.186913,66.566826,86.739456,85.612694,41.271191,65.564217
33.706875,16.346237,35.529789,67.200363,87.143982,85.363327,41.580002,66.014862
35.066505,16.481985,36.252426,69.229515,88.115562,84.503685,42.154854,66.962639
35.654568,16.565430,36.444187,70.249847,88.645874,84.189484,42.414867,67.271355
35.960182,16.588291,36.411068,70.743828,88.914970,84.040344,42.597225,67.443626
36.554150,16.575232,36.339520,71.265274,89.335564,83.592842,42.844467,67.696381
37.069107,16.491562,35.981178,71.453751,89.468712,83.166420,42.916595,67.922539
37.390472,16.444773,35.792759,71.528809,89.471664,82.941345,42.925568,68.093079
38.017090,16.336647,35.584366,71.161171,89.139465,82.546356,42.886799,68.294830
38.557308,16.153038,35.389912,70.600632,88.827980,82.032089,42.820827,68.486702
38.803383,16.070353,35.425419,70.514595,88.753899,81.833664,42.814945,68.563339
39.048210,15.856318,35.287212,70.194489,88.526573,81.633469,42.701920,68.622559
38.972214,15.685167,35.099609,69.984901,88.544472,81.604637,42.616840,68.641953
38.823982,15.563739,35.039276,69.922478,88.551422,81.607079,42.475662,68.599701
38.761040,15.478386,35.035313,69.928291,88.672760,81.609161,42.350483,68.530571
38.540421,15.281837,34.972313,69.569397,88.818359,81.521423,42.097576,68.508881
38.425804,15.195185,34.983906,69.231812,88.854645,81.463028,41.846451,68.515800
38.374889,14.948524,34.918850,68.553223,88.723557,81.001793,41.239750,68.816643
38.224201,14.707229,34.860859,67.646744,88.179703,80.185028,40.256279,69.214722
38.069199,14.597940,34.790253,67.126343,87.837646,79.766197,39.681736,69.264183
37.197758,14.271349,34.580608,65.833496,86.663124,78.857559,37.718967,69.550179
36.769314,13.965460,33.976048,64.912704,85.798706,78.600990,36.712669,69.698250
36.550133,13.824073,33.697315,64.632942,85.463280,78.355057,36.258446,69.769424
36.014927,13.412662,33.013889,63.741573,84.883179,77.729668,35.406387,69.693260
35.491848,13.032305,32.412632,62.624710,84.105492,77.151367,34.448673,70.039345
35.368301,12.873980,32.076420,62.054565,83.600952,76.810150,34.004147,70.358887
35.009247,12.566815,31.147861,60.793793,82.347137,75.983269,33.225735,70.951530
34.579334,12.308537,30.099804,59.203568,80.798668,74.875702,32.378651,71.591827
34.278225,12.114103,29.688677,58.413033,79.923668,74.297012,32.020988,71.864784
33.968281,11.949450,29.387188,57.685707,78.989624,73.688660,31.710371,72.029083
33.385700,11.614208,28.927372,56.200760,76.965271,72.488213,31.155199,72.299278
33.084938,11.497322,28.709826,55.424397,75.884140,71.978188,30.883818,72.324562
32.519337,11.294107,28.308117,53.812134,73.728020,70.865875,30.401495,72.130180
31.782104,11.150498,27.705185,52.238548,71.859596,69.738945,29.806986,71.614166
31.333673,11.087187,27.447401,51.474396,71.014793,69.107567,29.596077,71.302345
29.708372,10.896950,26.818689,48.704472,68.195045,66.832817,28.737043,70.226425
28.697193,10.825547,26.528219,46.788490,66.473434,65.178177,27.990883,69.683136
28.339266,10.796354,26.368399,45.897823,65.556686,64.341431,27.721548,69.470741
27.517530,10.810965,26.180534,44.110256,63.645535,62.610744,27.406208,68.781563
26.580608,10.869422,25.916046,42.125118,61.494686,61.170181,27.257912,68.128601
26.160919,10.878088,25.853621,41.193474,60.347851,60.431389,27.252033,67.829872
25.434851,10.819909,25.638048,39.259811,57.929897,58.737171,27.240608,67.131691
25.111851,10.752939,25.547493,38.221531,56.668064,57.791267,27.227448,66.764549
24.788622,10.696163,25.455730,37.205990,55.376213,56.800930,27.135605,66.353470
24.125582,10.603006,25.260830,35.313370,52.715347,54.915794,27.004856,65.567993
23.504236,10.575444,24.948874,33.512463,50.277485,52.856125,26.834505,64.884941
23.105074,10.562729,24.775061,32.619473,49.110489,51.799129,26.780939,64.616043
22.360807,10.634873,24.387768,31.089195,46.972584,49.747223,26.715401,64.386787
21.705078,10.704820,24.088037,29.658302,44.951511,47.956169,26.673809,64.286407
21.391657,10.768421,23.884489,28.983885,43.841362,47.027351,26.622047,64.244820
21.078846,10.807988,23.762356,28.304937,42.735504,46.096313,26.543760,64.198715
20.473526,10.838547,23.574846,26.766138,40.358185,44.013256,26.473892,64.199425
20.065945,10.837850,23.390194,26.015717,39.101379,42.888592,26.392796,64.018211
19.194506,10.811427,22.858683,24.258663,36.532848,40.568012,26.179363,63.831768
18.337183,10.781852,22.401127,22.609882,33.975948,38.185677,25.995766,63.797241
17.980619,10.832706,22.126562,21.897736,32.813564,37.096970,25.936317,63.710655
17.153370,10.958940,21.612411,20.526751,30.760189,35.128017,25.882631,63.235428
16.400015,10.989282,21.368822,19.506523,28.901463,33.574581,25.881313,62.447376
16.067513,11.009892,21.437353,19.003777,28.206776,32.906082,25.868967,62.055584
15.454644,11.039531,21.791136,18.255659,26.909771,31.222664,25.857368,61.528233
14.852523,11.105234,22.179026,17.617378,25.629381,29.256195,25.615803,60.917538
14.556332,11.142209,22.378693,17.202242,24.959984,28.292770,25.507853,60.648628
14.020147,11.152719,22.651125,16.157713,23.535477,26.607018,25.377285,60.325844
13.459150,11.149491,22.678087,15.216735,21.991449,25.113743,25.341711,59.886787
13.210994,11.158855,22.691956,14.809608,21.313314,24.285635,25.375528,59.493046
12.607947,11.152065,22.957022,14.161241,20.111120,22.782949,25.468538,58.858299
12.096828,11.050880,23.240049,13.723397,19.089550,21.486975,25.605782,58.633675
11.883939,11.013433,23.298439,13.530367,18.639174,20.966595,25.734344,58.556702
11.499253,10.944724,23.114017,13.116055,17.843571,19.934147,25.726963,58.439472
11.206967,10.845523,22.902504,12.760513,17.170105,19.080526,25.668207,58.373714
10.966206,10.673155,22.747759,12.489892,16.785292,18.356213,25.693102,58.517071
10.773672,10.483038,22.706387,12.262794,16.470150,17.730915,25.714582,59.197609
10.610366,10.309242,22.672775,12.081130,15.797003,16.941885,25.536991,59.834503
10.536190,10.284687,22.644676,12.003681,15.482406,16.548321,25.435402,60.095539
10.426991,10.274013,22.644146,11.866866,14.914095,15.843369,25.231245,60.269421
10.320767,10.168358,22.566109,11.803388,14.382865,15.184884,24.953770,60.359737
10.222244,10.143911,22.567446,11.775403,14.156466,14.878754,24.797155,60.324371
9.941054,10.056255,22.557594,11.720823,13.620745,14.321099,24.373867,60.590443
9.478315,9.970875,22.447571,11.589571,12.949664,13.541061,23.525368,60.867229
9.335357,9.949038,22.389635,11.537059,12.757933,13.308409,23.246996,60.970161
9.051270,9.970304,22.269327,11.466386,12.553809,12.931393,22.731339,61.119282
8.782431,10.040371,22.180248,11.392351,12.506305,12.705857,22.369749,61.336315
8.635860,10.033904,22.165058,11.384764,12.487570,12.608820,22.290413,61.409115
8.502589,10.008698,22.297297,11.370722,12.470334,12.535146,22.192122,61.372787
8.311249,9.945252,22.780275,11.370509,12.501701,12.584084,22.013811,61.023560
8.176952,9.815795,23.478163,11.350666,12.523227,12.594446,21.747011,60.697357
8.077363,9.753262,24.071491,11.271164,12.339496,12.460500,21.420818,60.200596
8.012064,9.691822,24.437687,10.930056,12.179043,12.325817,21.123947,59.453323
7.978579,9.679794,24.582844,10.798092,12.108304,12.261376,20.981937,58.985088
7.938487,9.618268,24.832930,10.500377,11.983343,12.159602,20.562561,58.156326
7.927954,9.607459,25.061623,10.258171,11.878566,12.172072,20.167006,57.260532
7.900135,9.602131,25.186869,10.151390,11.838160,12.263552,19.969082,56.816723
7.899670,9.497688,25.323591,9.903676,11.796429,12.540915,19.562971,56.167831
7.894030,9.452370,25.465328,9.675767,11.663389,12.801782,19.191072,55.760784
7.894230,9.442607,25.478069,9.476871,11.604736,12.879460,19.015310,55.596767
7.888619,9.427901,25.140390,9.047541,11.272393,12.971690,18.662165,55.357937
7.818866,9.494820,24.515259,8.507087,10.827996,13.222528,18.392429,54.681316
7.771533,9.538624,24.184441,8.254507,10.659624,13.309945,18.253923,54.429314
7.703283,9.648256,23.492239,7.784945,10.346062,13.736755,17.994141,54.169544
7.691490,9.731647,22.773706,7.352720,9.824585,14.166472,17.787508,54.028698
7.680214,9.746365,22.480484,7.204975,9.574968,14.501533,17.682144,53.853626
7.628667,9.729961,21.957649,6.928718,9.122149,15.273090,17.360039,53.597591
7.560295,9.740058,21.310293,6.646951,8.770355,16.358232,17.035604,53.050247
7.512870,9.753980,20.990908,6.457036,8.610308,16.961885,16.834845,52.565872
7.357238,9.760708,20.237047,6.173041,8.221161,19.138504,16.185701,51.200729
7.220439,9.814595,19.748869,6.192200,8.380522,20.732315,15.834205,50.417553
7.173976,9.834913,19.438272,6.199577,8.574803,21.521053,15.687769,50.108456
7.127249,9.853607,19.152510,6.248131,8.708525,22.284592,15.530267,49.804695
6.967686,9.938141,18.339018,6.421688,9.346607,24.858059,15.038307,48.609329
6.928685,9.961244,18.094524,6.528500,9.623018,25.629333,14.909653,48.173386
6.826506,9.883907,17.403749,7.082283,11.013157,28.406801,14.741250,47.090240
6.847790,9.846246,17.056211,7.752393,12.549403,30.444376,14.813757,46.546646
6.888299,9.856842,16.988457,8.157465,13.310732,31.535082,14.852880,46.304047
6.890064,9.757462,16.708265,9.004447,14.825073,33.781059,14.822319,45.786438
6.885396,9.689713,16.364128,9.946153,16.608744,36.139996,14.870782,45.152245
6.889713,9.656380,16.178169,10.510670,17.615799,37.378296,14.912719,44.760544
7.023110,9.612414,15.814671,11.824519,19.856386,39.695065,15.200866,44.233681
7.086343,9.573424,15.654686,12.652663,20.998154,40.909863,15.360905,44.068531
7.183476,9.530958,15.507494,13.494637,22.194782,42.138905,15.555927,43.907330
7.396378,9.443501,15.220074,15.301860,24.558464,44.514740,15.800607,43.625500
7.634494,9.352835,15.089826,16.984758,27.056141,46.672859,15.857864,43.731602
7.741717,9.319963,14.902748,17.866774,28.327579,47.743080,15.885319,43.844574
8.089049,9.289595,14.558679,19.584707,30.964872,49.934879,16.151896,44.247410
8.491048,9.330845,14.283185,21.477104,33.454628,52.239536,16.527794,44.777515
8.762046,9.311915,14.203141,22.422201,34.749973,53.451962,16.678864,45.110485
9.359468,9.314698,14.219805,24.317316,37.435802,55.873451,17.090418,45.943783
10.100001,9.332215,14.566372,25.888889,40.221756,58.378193,17.510548,46.900024
10.513154,9.406804,14.816346,26.769852,41.644302,59.634212,17.762827,47.516117
11.322165,9.507990,15.304888,28.451122,44.483078,62.121716,18.246773,48.920803
12.085191,9.673928,15.867682,30.423864,47.017086,64.359299,18.747202,50.076279
12.439305,9.766842,16.150917,31.384706,48.261864,65.404778,18.986141,50.448772
13.095959,9.813032,16.673159,33.309261,50.797215,67.358673,19.541458,51.222176
13.863325,9.835316,17.228289,35.431610,53.468498,69.437675,20.237967,51.931667
14.248673,9.846264,17.504032,36.591724,54.844189,70.519501,20.778053,52.303947
15.079036,9.812179,18.004211,38.846085,57.601471,72.705063,21.789906,52.994938
15.897658,9.741447,18.596552,41.163979,60.129581,74.743393,22.577641,53.569344
16.307924,9.715449,18.876421,42.341431,61.347553,75.604996,22.996296,53.749714
17.106094,9.697138,19.536314,44.857990,63.903389,77.444435,23.748795,53.994205
17.806776,9.872734,20.362640,47.339485,66.547440,78.703400,24.407539,54.235085
18.144081,9.973016,20.928825,48.563759,67.909378,79.281540,24.697815,54.493668
18.816090,10.133187,21.992697,51.013538,70.665718,80.169884,25.281128,55.300598
19.456427,10.319174,22.926311,53.559769,73.466782,80.947098,25.782986,56.331188
19.762764,10.416904,23.314180,54.763882,74.820427,81.316055,25.991875,56.772030
20.334080,10.527482,23.993759,56.815762,77.324463,81.990402,26.416733,57.701969
20.849369,10.627331,24.567442,58.593304,79.194183,82.550255,27.102455,58.500973
21.081547,10.683002,24.944508,59.389091,80.146873,82.786972,27.461414,58.906483
21.504103,10.849208,25.870953,61.235500,82.133171,83.217400,28.195391,59.673828
22.065283,11.054853,26.731403,63.066963,84.043594,83.715248,28.909269,60.719479
22.373434,11.165227,27.095097,63.873756,84.915237,83.867104,29.187630,61.244160
22.656946,11.270127,27.437132,64.519661,85.511185,83.993996,29.401646,61.763077
23.414278,11.466608,28.239447,66.523598,86.903114,83.794312,29.843964,63.669178
23.862638,11.638241,28.748943,67.737625,87.897667,83.441269,30.188570,64.876183
24.067415,11.734866,29.150671,68.373138,88.363182,83.289444,30.345549,65.332588
24.450403,12.012177,29.928299,69.808067,89.250229,82.777016,30.655228,66.115433
24.654154,12.166831,30.263012,70.410614,89.577576,82.589241,30.808201,66.485237
24.991119,12.498212,31.054827,71.573349,90.089218,82.439819,30.848726,66.890053
25.399359,12.745108,32.081932,72.295029,90.455833,82.246002,30.829388,67.545708
25.570135,12.863618,32.599251,72.444221,90.598083,81.988907,30.776388,67.783798
25.841305,13.085666,33.483936,72.694572,90.764275,81.636742,30.685543,68.006645
26.145842,13.303291,34.086784,72.501823,90.373756,80.993500,30.719484,68.138428
26.239223,13.529929,34.551521,72.630074,89.970375,80.065689,30.599068,68.014290
26.188456,13.657411,34.782406,72.489632,89.930168,79.291992,30.643713,67.862885
26.001343,13.733128,34.866024,72.516396,89.915985,78.571571,31.012739,67.731773
25.920765,13.747806,34.824970,72.519341,89.870110,78.160652,31.136618,67.736771
25.562340,13.715396,34.544445,72.743256,89.601257,77.281372,31.386108,67.488564
25.177172,13.630302,34.188873,73.127113,89.353287,76.549683,31.476526,67.115532
25.032343,13.619733,34.001678,73.328842,89.257057,76.056992,31.569780,66.892670
24.958790,13.583170,33.884544,73.359879,89.158150,75.513641,31.598011,66.815910
24.854973,13.478069,33.771561,73.333084,89.036430,74.654266,31.670025,66.814034
24.859312,13.424919,33.715935,73.226463,88.893318,74.194206,31.700317,66.778435
24.785564,13.379361,33.786541,72.890205,88.605804,73.689957,31.788477,66.691292
24.534845,13.324924,33.769855,72.177956,88.345757,73.298058,31.451818,66.472794
24.362131,13.305734,33.820190,71.851776,88.185532,73.105804,31.216299,66.362907
23.982801,13.295428,33.850914,70.962387,87.725685,72.611084,30.940472,66.023598
23.523726,13.322721,33.805691,70.212189,87.263405,72.309280,30.782438,65.711418
23.309132,13.349975,33.755146,69.720329,86.962006,72.134300,30.604824,65.612213
22.649523,13.200315,33.345997,67.742950,85.488403,71.226677,30.099953,65.285851
22.232849,13.027497,32.611195,66.244751,84.123367,70.353027,29.839437,64.800346
22.043404,12.940177,32.301510,65.426537,83.328545,69.867447,29.710299,64.540512
21.577890,12.668409,31.917459,62.642609,80.649437,67.992821,29.402519,63.673332
21.333975,12.523250,32.000511,60.960793,78.871094,66.430099,29.225286,62.935783
21.193256,12.447190,32.082714,60.185200,78.125084,65.627083,29.007635,62.562908
20.967993,12.359377,32.243622,58.826084,76.387680,64.088974,28.523830,61.798782
20.767647,12.188279,32.132420,57.229950,74.380692,62.365849,27.992180,61.191513
20.670761,12.153646,32.067745,56.351776,73.346817,61.564140,27.754543,60.992168
20.321365,12.086071,32.157696,54.754158,71.355591,59.844330,27.363092,60.498241
20.081108,12.068194,32.604912,53.290291,69.606972,58.225338,27.112309,60.360664
19.932272,12.098874,32.884567,52.540493,68.618401,57.419037,27.011051,60.210800
19.602184,12.058180,33.357613,50.961735,66.553780,55.897110,26.713667,59.782257
19.360968,11.922476,33.279224,49.161812,64.350891,54.186817,26.483713,59.817440
19.294270,11.801971,33.173275,48.167553,63.174774,53.386387,26.381340,59.849262
19.157219,11.480845,33.023617,46.094643,60.744480,51.497364,26.101088,59.964668
19.059986,11.281037,32.867916,45.007179,59.493179,50.507805,25.990444,59.984932
18.933813,11.112139,32.708958,43.875618,58.217396,49.448601,25.910973,59.857460
18.770000,10.982940,32.440338,42.763863,56.910877,48.324211,25.817875,59.642487
18.615194,10.888742,32.085228,41.697235,55.577271,47.247704,25.744738,59.416397
18.154854,10.638038,31.075472,38.946941,51.572712,44.370537,25.748423,59.336758
17.833912,10.440946,30.622078,37.457794,49.332035,42.700745,25.616745,59.218990
17.527359,10.236211,30.302040,35.688770,47.008583,41.291008,25.415892,59.309849
17.379219,10.126553,30.071243,34.828308,45.767418,40.491600,25.171606,59.341980
17.038311,10.015250,29.640423,33.160511,43.446407,38.832577,24.638870,59.550831
16.675827,9.984088,29.294220,31.472513,41.106010,37.305645,24.117334,59.770432
16.507668,9.993866,29.105833,30.699314,39.998634,36.581860,23.898876,59.872768
16.370506,10.002491,28.868631,29.818245,38.836971,35.776142,23.699156,59.995804
16.054157,9.952705,28.424404,27.837738,36.433498,34.025074,23.591949,60.307415
15.652828,9.903907,28.002592,25.858068,34.073406,32.544838,23.427397,60.749451
15.164062,9.906345,27.309107,24.001616,31.829262,31.090446,23.373466,60.955505
14.477843,9.988630,26.564741,21.966532,28.725924,28.723951,23.174971,61.383156
14.291264,10.002624,26.311907,21.396860,27.640690,27.749914,23.084740,61.521069
13.947265,10.031762,25.796259,20.277594,25.366100,25.613754,22.886236,61.960518
13.661258,10.035959,25.394863,19.158813,23.215170,23.583981,22.651554,62.578369
13.557899,10.026333,25.304974,18.595596,22.194767,22.526634,22.567730,62.911640
13.389194,9.925758,25.056067,17.406088,20.282646,20.468739,22.450710,63.715343
13.257440,9.824646,24.769203,16.378502,18.529106,18.589518,22.375261,64.507812
13.182955,9.767207,24.624445,15.997169,17.739656,17.784134,22.332611,64.850838
13.093488,9.648644,24.492811,15.368160,16.305452,16.298487,22.261255,65.673492
13.005466,9.546717,24.147299,14.860024,15.103498,15.026688,22.356499,66.359116
12.934489,9.472754,23.944811,14.636479,14.579381,14.473364,22.385832,66.667404
12.780102,9.425359,23.507574,14.191833,13.645619,13.397422,22.446465,67.325829
12.667402,9.510372,22.996105,13.858933,12.716805,12.520058,22.537613,68.140831
12.652049,9.538194,22.782164,13.662776,12.363021,12.143462,22.614561,68.663544
12.674541,9.581672,22.271341,13.319473,11.738050,11.466541,22.749210,69.678215
12.719468,9.541413,21.875223,13.109768,11.154841,10.836674,22.854887,70.193306
12.766499,9.466446,21.273310,13.008238,10.688040,10.396792,22.927822,70.704559
12.748926,9.411816,20.869257,12.887035,10.437115,10.198259,22.995035,70.712685
12.703331,9.253376,20.019491,12.598824,9.993850,9.845641,22.989653,70.556007
12.686356,9.168771,19.600094,12.464799,9.798430,9.690226,22.992584,70.448143
12.637574,9.013378,18.883257,12.193673,9.463931,9.418659,22.961138,69.916634
12.488684,8.884315,18.292833,11.942584,9.234297,9.190104,22.939150,69.269394
12.408959,8.822893,18.035345,11.869554,9.156192,9.086473,22.911318,69.098930
12.232499,8.699209,17.621025,11.780227,9.066918,8.912028,22.814955,68.725182
12.027705,8.567757,17.270309,11.704613,8.994965,8.756453,22.602768,68.553658
11.945720,8.507500,17.152870,11.653800,8.963243,8.684827,22.488474,68.542320
11.812318,8.372103,17.337481,11.639314,9.001705,8.574967,22.200220,68.226608
11.676370,8.276892,17.545790,11.657815,9.067598,8.460162,21.971367,68.010727
11.611821,8.268446,17.636183,11.698215,9.096648,8.414197,21.848928,67.866882
11.492752,8.285282,17.727865,11.879267,9.130938,8.326807,21.630840,67.252014
11.417935,8.333381,17.800533,11.958204,9.075026,8.185284,21.449163,66.325439
11.385108,8.316018,17.854853,11.938533,8.888513,8.066280,21.375210,65.794144
11.360312,8.246019,18.222506,11.906417,8.559035,7.831439,21.084702,64.527550
11.325198,8.165750,18.626631,11.873427,8.339975,7.688076,20.819611,63.453541
11.290220,8.162061,18.832451,11.858883,8.272072,7.641638,20.612965,62.867867
11.198005,8.159546,19.137699,11.825877,8.136333,7.568499,20.268824,61.607403
11.097685,8.155389,19.344234,11.791212,7.913094,7.472708,19.980639,60.608509
11.022426,8.125091,19.435289,11.775930,7.806407,7.486913,19.748034,60.034298
10.812222,8.030023,19.383223,11.613338,7.538400,7.553980,19.319109,58.878201
10.584575,8.055842,19.279633,11.369413,7.287253,7.697496,18.934288,57.748348
10.475766,8.097004,19.240549,11.224154,7.176531,7.793720,18.776009,57.171650
10.212067,8.204451,19.043756,10.999432,6.894708,8.195442,18.237167,55.265015
9.972351,8.267689,18.721912,10.892551,6.825066,8.827533,17.756662,53.791759
9.843340,8.294007,18.626268,10.837865,6.807541,9.164849,17.533997,52.963032
9.595487,8.367679,18.477324,10.741260,6.776584,9.924139,17.260126,51.785885
9.371606,8.547555,18.258652,10.504699,6.781098,10.669397,17.021425,50.627438
9.252073,8.635635,18.134489,10.333615,6.834446,11.250089,16.879101,50.023182
9.003299,8.808934,17.915148,10.057391,7.406009,12.609711,16.636148,48.763786
8.765733,9.023005,17.677364,9.822663,7.930006,13.725758,16.439787,47.461727
8.638060,9.171131,17.504402,9.719180,8.254196,14.314743,16.397089,46.844540
8.510735,9.292646,17.337765,9.592117,8.552464,15.029448,16.331778,46.160477
8.068146,9.583107,16.829662,9.249762,9.625092,17.489317,16.061960,43.855053
7.518874,9.906318,16.242439,8.837988,10.930994,19.857649,15.990802,41.548584
7.124101,10.155116,15.909037,8.607424,11.678402,21.653103,16.024384,40.494011
6.796621,10.420335,15.621574,8.528569,12.612197,23.665855,16.036581,39.748581
6.652709,10.544264,15.512546,8.501825,13.253338,24.770502,16.020197,39.476448
6.473233,10.764022,15.377419,8.444100,14.385927,27.151459,16.102613,39.443020
6.270820,11.011528,15.313476,8.508604,15.784631,29.533672,16.322250,39.503536
6.181684,11.173827,15.275911,8.575304,16.661858,30.793947,16.468388,39.450390
6.062213,11.474655,15.177309,8.853538,18.632383,33.408398,16.799635,39.141449
6.033256,11.721462,15.075131,9.163478,20.685501,36.035103,17.359529,38.849831
6.060021,11.800130,15.030085,9.322979,21.747631,37.207832,17.667728,38.738029
6.130587,11.880051,14.920098,9.621556,23.763800,39.693485,18.335007,38.477554
6.232679,11.956963,14.643196,10.011149,25.678839,42.166542,18.970589,38.411522
6.269418,11.985677,14.456559,10.255114,26.609293,43.414425,19.280029,38.494495
6.374280,12.000379,13.966314,10.686495,28.415695,46.000130,19.950735,38.879013
6.483351,12.010115,13.590175,11.602726,30.462599,48.582939,20.810621,39.398350
6.543479,12.044401,13.468956,12.176376,31.595606,49.735237,21.368076,39.621056
6.765069,12.080136,13.104392,13.558482,34.002216,52.090424,22.584650,40.338699
6.916486,12.175275,12.595330,15.171396,36.567299,54.529919,23.722546,41.105427
6.992370,12.240220,12.384417,16.046316,37.845337,55.757526,24.367451,41.444748
7.117675,12.391791,12.384004,18.065979,40.369324,58.251106,25.427143,41.959686
7.249275,12.520510,12.581601,20.311277,42.924339,60.585518,26.256716,42.328842
7.330526,12.615390,12.668713,21.496155,44.256092,61.707207,26.682026,42.576576
7.486461,12.789698,12.924066,23.939470,46.883331,63.962791,27.546947,43.163719
7.773197,12.916871,13.194857,26.191013,49.318996,66.004036,28.475857,44.134487
7.938180,12.965702,13.473255,27.399710,50.591122,67.010468,28.905548,44.547348
8.374572,12.979923,14.013495,29.936565,53.241634,68.899750,29.707336,45.539677
8.862407,13.027771,14.584591,32.369057,56.003399,70.774651,30.531179,46.799168
9.145761,13.038779,14.874919,33.470814,57.388195,71.578163,30.923306,47.553577
9.851490,13.065363,15.410297,35.841568,60.163200,73.304985,31.691422,49.197277
10.540470,13.055022,16.035633,38.163441,62.742474,74.754890,32.191845,50.671219
10.846360,12.995676,16.413609,39.319069,64.021927,75.416092,32.399918,51.311768
11.376050,12.944372,17.287937,41.463253,66.551712,76.301117,32.784630,52.617420
11.901545,12.887872,18.102125,43.710072,68.656799,76.877075,33.173214,53.941093
12.152004,12.926423,18.578320,44.897747,69.762138,77.301109,33.467781,54.599243
12.645350,12.795266,19.457207,47.316776,71.862289,78.106163,34.114990,55.846012
13.096866,12.613995,20.321531,49.828793,73.823082,78.792107,34.750492,57.144245
13.312875,12.571732,20.720081,51.098122,74.573395,79.083290,35.040295,57.775486
13.772425,12.495558,21.456331,53.682110,76.217949,79.905922,35.535141,59.027691
14.272177,12.356349,22.158493,56.004097,77.710434,80.769844,35.769642,60.422207
14.541159,12.272425,22.490620,57.085537,78.499443,81.023514,35.875679,60.970165
15.093223,12.096552,23.073687,59.057072,80.067566,81.189026,35.862556,61.900864
15.663530,11.901804,23.472713,61.099152,81.486465,80.879211,35.839573,62.780346
15.945057,11.831378,23.734772,62.095154,82.230629,80.729004,35.916664,63.126656
16.509037,11.698861,24.143543,63.866100,83.494850,80.526009,36.036968,63.621574
17.105541,11.417991,24.491503,65.709656,84.400711,80.407448,35.952351,64.421135
17.564861,11.181823,24.949722,67.401215,85.042908,80.236702,36.029156,65.111961
17.791790,11.092741,25.223192,68.150391,85.288956,80.131111,35.953598,65.558578
18.176155,10.949086,25.763144,69.893364,85.566635,80.210526,35.802341,66.249771
18.362257,10.902623,26.127556,70.748886,85.565506,80.302444,35.704041,66.581787
18.668457,10.869804,26.606298,72.269730,85.800507,80.172508,35.409145,67.163376
18.966953,10.836668,26.957952,73.450874,86.190224,80.237930,35.220131,67.381805
19.085506,10.844378,27.112986,74.027687,86.359970,80.132004,35.167740,67.304878
19.430470,10.818183,27.372007,74.817070,86.822037,79.966454,34.933670,67.390198
19.700205,10.790040,27.520596,75.389824,87.108360,80.173798,34.449604,67.497330
19.793474,10.759980,27.607428,75.624672,87.208015,80.286766,34.056030,67.554558
19.928827,10.714025,27.823460,76.175743,87.354195,80.426895,33.152130,67.482536
20.097044,10.579629,27.832001,76.220375,87.406822,80.478882,32.214767,67.448799
20.206793,10.477522,27.680357,76.215530,87.427246,80.346329,31.780109,67.458168
20.452099,10.220884,27.246161,75.829041,87.405380,80.187782,31.056934,67.760979
20.561460,9.936066,26.831211,75.105995,87.051666,79.876968,30.333805,67.683952
20.617802,9.781760,26.596884,74.571289,86.724091,79.607079,29.973436,67.631615
20.621943,9.545799,26.163498,73.640175,86.469566,79.342110,29.236927,67.169632
20.592093,9.454003,25.920551,73.152733,86.402901,79.420227,28.901117,66.927750
20.504938,9.275682,25.255178,72.333496,86.298721,79.428192,28.411901,66.826584
20.282223,9.156031,24.486422,70.947014,86.130013,79.217361,27.626850,66.482635
19.981997,9.128298,24.218803,70.236328,85.955879,79.111107,27.138296,66.105095
19.838644,9.147637,24.103456,69.882416,85.772659,79.069878,26.897060,65.961884
19.599802,9.211644,24.051331,69.149811,85.613159,79.208687,26.464138,65.361206
19.391512,9.278466,23.905945,68.345520,85.425400,79.490166,26.110714,64.807381
19.331635,9.283786,23.786005,67.913528,85.255302,79.587982,25.981995,64.727516
19.180235,9.291996,23.572428,67.297440,84.994171,79.765686,25.685331,64.316574
19.050648,9.202183,23.203350,66.461479,84.780212,80.065407,25.170523,63.865303
19.014687,9.202177,23.041262,66.004402,84.752029,80.246452,24.890312,63.716404
19.103012,9.222775,22.671568,65.213814,84.846191,80.534103,24.282915,63.534153
19.249310,9.190182,22.487270,64.848534,85.003990,80.647865,24.022013,63.635380
19.635214,9.131784,22.357054,63.637928,84.987823,80.188423,23.478071,63.941044
19.722534,9.125978,22.548664,63.230831,85.089363,79.892273,23.312981,63.517223
19.729256,9.152451,22.792614,63.020584,85.038376,79.939186,23.291096,62.916054
19.705170,9.166409,22.913170,62.815002,84.963417,80.020065,23.295250,62.657047
19.635675,9.177316,23.019083,62.514957,84.757416,79.997566,23.316919,62.282665
19.410183,9.196074,23.126289,61.988964,84.173126,79.672638,23.123857,61.532619
19.285519,9.210959,23.185635,61.762569,83.936119,79.487648,23.010027,61.180840
18.991747,9.340662,23.290466,61.247643,83.494522,78.802902,22.839474,60.291084
18.776125,9.425320,23.364773,60.725338,83.024254,77.776550,22.528666,59.437462
18.628128,9.489900,23.580086,60.597755,82.743713,77.182579,22.371304,58.882889
18.324104,9.590195,24.079275,59.960213,82.248131,75.822433,22.061083,57.804237
17.974749,9.674418,24.169992,59.290131,81.790504,74.381470,21.775536,56.748089
17.802198,9.712397,24.201056,58.956013,81.447739,73.663414,21.605385,56.223259
17.482447,9.761604,24.255930,58.195564,80.406677,72.020050,21.295088,55.305584
17.337080,9.756524,24.280119,57.795811,79.868179,71.235077,21.092287,54.926941
17.148367,9.733815,24.302380,57.355877,79.222435,70.365555,20.850897,54.507629
16.869040,9.770947,24.492163,56.614967,77.748337,68.451698,20.460712,53.894447
16.702662,9.813474,24.739349,55.626690,76.045929,66.382271,20.277237,53.644680
16.631292,9.837064,24.865501,54.953453,75.089264,65.410667,20.271849,53.570625
16.508467,9.830800,25.204056,53.645298,73.116257,63.299019,20.258463,53.447910
16.410954,9.863206,25.395992,53.016289,72.046989,62.240181,20.216629,53.191631
16.298216,9.897756,25.544691,52.272713,70.928047,61.256821,20.164028,53.143349
16.066101,10.008067,26.094944,50.962696,68.896027,59.332081,20.034109,52.753689
15.842968,10.103201,26.754318,49.948380,67.017372,57.534691,19.885935,52.404140
15.771048,10.194440,27.164110,49.536633,66.164459,56.687878,19.846474,52.294659
15.628189,10.290860,27.904133,48.617870,64.298523,54.743347,19.776304,52.404392
15.558981,10.317336,28.238104,48.139183,63.281609,53.668941,19.714209,52.439156
15.495113,10.311899,28.545002,47.518013,62.199741,52.698902,19.645941,52.406109
15.229535,10.236046,29.183064,45.485394,58.802658,49.759045,19.478569,51.891323
15.019958,10.188138,29.335808,44.091400,56.453873,47.885536,19.467585,51.375580
14.927374,10.119806,29.365458,43.293697,55.241192,46.852009,19.433153,51.280239
14.644446,9.978506,29.195753,41.713600,52.992744,44.676151,19.399189,51.230541
14.356846,9.809176,28.783751,40.306652,50.819485,42.495537,19.444054,51.646484
14.238046,9.734369,28.574726,39.679928,49.753918,41.485157,19.470486,51.727810
13.978866,9.671860,28.185343,38.384762,47.708839,39.511986,19.369301,51.806679
13.740882,9.614413,27.827719,36.815937,45.427559,37.490337,19.188826,52.166920
13.599871,9.568579,27.765041,36.082062,44.218185,36.385269,19.132351,52.403984
13.327303,9.462115,27.786905,34.678421,41.952873,34.197430,19.244722,53.098358
13.116415,9.412010,27.855049,33.895821,40.778233,33.032257,19.357817,53.301094
12.859784,9.374882,27.917746,33.078449,39.559856,31.846382,19.492779,53.413521
12.106112,9.282685,27.677572,30.715677,36.194027,28.835661,19.760685,54.026974
11.703622,9.289484,27.171209,28.981506,34.151215,27.008286,19.852854,54.899178
11.336570,9.262812,26.688271,27.187843,32.164211,25.097694,19.933100,55.826912
11.063481,9.273976,26.476175,25.570126,30.403534,23.416248,19.964178,56.689007
10.828255,9.280336,26.312601,24.114557,29.178068,21.899372,20.018749,57.280025
10.712721,9.281532,26.187771,23.452255,28.475098,21.113792,20.025835,57.518967
10.587193,9.303426,26.083263,21.948692,26.878929,19.686890,20.092155,58.101936
10.513862,9.359935,25.578228,19.499506,24.248240,17.980761,20.101542,59.483471
10.575315,9.385502,24.877298,17.955959,22.678621,17.014498,20.155449,60.717655
10.666326,9.344404,24.255968,16.588249,21.174694,16.100128,20.182829,61.752987
10.732162,9.290428,24.016602,16.012234,20.501581,15.721861,20.201139,62.311394
10.838516,9.208665,23.711771,15.022453,19.312508,15.020375,20.150358,63.272858
10.913328,9.158409,23.545425,14.248528,18.305979,14.440006,20.189535,63.908287
10.928837,9.131628,23.460978,13.817723,17.862236,14.185794,20.209007,64.085434
10.880227,9.070529,23.328098,13.315030,17.406258,13.920676,20.168924,64.122162
10.741060,9.106040,22.947760,12.387522,16.600760,13.438966,19.948866,63.941296
10.654544,9.175841,22.703138,11.989117,16.245644,13.206079,19.782331,63.804092
10.412519,9.421561,21.861582,10.982999,15.339071,12.562573,19.350050,63.908108
10.349416,9.540565,21.303591,10.441616,14.845769,12.218414,19.135586,64.232597
10.340741,9.594841,20.879532,10.120028,14.591969,12.046514,19.082663,64.454773
10.341190,9.698809,20.062651,9.455558,14.131386,11.742373,19.004107,64.917809
10.282761,9.719853,19.287563,8.880915,13.730247,11.509962,18.810581,64.962036
10.286503,9.729133,18.957855,8.610373,13.490853,11.415928,18.706039,64.951172
10.235086,9.718442,18.136734,7.948240,12.881516,11.132022,18.292383,64.806480
10.192492,9.721613,17.811916,7.610599,12.450089,10.901861,18.005653,64.985054
10.171639,9.719235,17.621611,7.455884,12.246870,10.766375,17.818089,65.098381
10.078533,9.730659,17.285433,7.182578,11.887884,10.496837,17.460421,64.915222
9.922080,9.743201,17.002260,6.951229,11.607525,10.252072,17.108438,64.189590
9.881781,9.746546,16.818525,6.807975,11.483926,10.137895,16.925308,63.733643
9.828262,9.790752,16.496281,6.539063,11.043807,9.850357,16.623093,63.239761
9.775540,9.778191,16.221386,6.286716,10.666219,9.605934,16.370424,62.932953
9.758655,9.772652,16.100193,6.203336,10.499754,9.496183,16.258797,62.740959
9.697806,9.857237,15.708282,6.050538,10.231293,9.363861,15.915421,62.193878
9.610443,9.922837,15.244210,5.911099,9.871122,9.277663,15.340447,61.234673
9.555647,9.943984,14.972290,5.836660,9.802427,9.329905,15.024939,60.727638
9.512782,9.954473,14.724954,5.773783,9.739226,9.429807,14.691841,60.204971
9.427280,9.955831,14.288026,5.795498,9.784493,9.802847,14.081668,58.842888
9.373626,9.972654,14.065900,5.846100,9.814717,10.028287,13.756652,58.105549
9.315462,9.929863,13.861597,5.888932,9.826014,10.261271,13.441786,57.348427
9.202564,9.847579,13.544732,5.964595,9.507919,10.754444,12.834218,55.749691
9.156275,9.867399,13.394604,5.989851,9.367683,10.988969,12.542394,55.096470
9.014525,9.953744,12.910491,6.012068,8.901567,11.403886,12.086834,54.036594
8.926305,10.091816,12.388987,6.010482,8.215742,11.832554,11.698004,53.144722
8.917904,10.149448,12.140347,5.983669,7.913385,12.043822,11.514241,52.855843
8.796229,10.147844,11.585115,5.919369,7.351526,12.598516,11.023010,52.167084
8.620945,10.101882,11.062402,5.839387,6.850401,13.523417,10.607375,51.247032
8.481876,10.044886,10.787596,5.804127,6.640458,14.151728,10.430157,50.684578
8.198581,9.935263,10.316657,5.816435,6.471821,15.339987,10.078246,49.572266
8.079332,9.950958,10.115991,5.823456,6.437885,16.040882,9.971670,49.088230
7.920401,9.965399,9.931370,5.799622,6.406661,16.843122,9.872926,48.579597
7.630837,9.990087,9.538771,5.703280,6.606698,18.359463,9.712418,47.500259
7.394309,10.046947,9.159754,5.655164,6.776567,20.000587,9.645712,46.640778
7.278831,10.058981,8.942393,5.621885,6.863173,20.802279,9.602820,46.256363
7.166601,10.062207,8.725723,5.591267,6.942856,21.555944,9.556794,45.904049
6.974019,9.972507,8.339300,5.537180,7.083618,23.137403,9.491693,45.340988
6.891836,9.836361,8.167182,5.511690,7.165419,24.013699,9.464602,45.125004
6.773044,9.551819,7.950617,5.531584,7.505818,25.935110,9.397260,44.870735
6.637840,9.229313,7.871339,5.619617,8.203123,27.727682,9.347509,44.359993
6.548386,9.094046,7.844140,5.677112,8.562351,28.683302,9.340921,43.945705
6.325903,8.841320,7.834128,6.115369,9.300576,30.489237,9.235941,43.125835
6.232143,8.779778,7.835011,6.365386,9.792532,31.398701,9.151120,42.674809
6.139756,8.722518,7.840552,6.661039,10.245153,32.284718,9.081774,42.399429
6.028769,8.593936,7.780552,7.510207,11.625361,34.127728,8.959326,42.028366
5.912977,8.491923,7.728168,8.775327,13.488843,36.131989,8.872190,41.529911
5.903576,8.481627,7.701048,9.567948,14.557914,37.244183,8.926117,41.351238
6.003008,8.506498,7.507304,11.146112,16.842321,39.637669,9.110205,41.204170
6.261295,8.515902,7.424548,12.964238,19.336061,41.936852,9.313399,41.388950
6.429832,8.530400,7.501967,13.880869,20.649897,43.125885,9.577534,41.652309
6.792624,8.611644,7.755587,15.752209,23.107431,45.649632,10.113816,42.297581
7.095465,8.768574,7.948486,17.646267,25.734215,48.279369,10.752632,42.895058
7.363127,8.903070,8.222373,19.306175,28.235929,50.712002,11.374297,42.958164
7.609144,9.048132,8.789121,21.224146,30.906862,53.038414,11.992223,42.776455
7.815518,9.216825,9.635150,23.104254,33.550354,55.525036,12.727890,42.532082
7.987808,9.348955,10.715618,24.926750,36.195435,57.795364,13.464446,42.262581
8.168788,9.503180,11.751787,26.831427,38.846481,59.983410,14.093597,42.228546
8.398854,9.667492,12.787103,28.987814,41.311398,61.847816,14.652023,42.644794
8.914588,10.023132,14.606441,33.088223,46.043365,64.981148,15.855879,43.579243
9.224271,10.178046,15.452492,35.247581,48.571724,66.352234,16.570129,44.067036
9.372465,10.198888,15.834775,36.297817,49.771511,67.104958,16.883072,44.259575
9.688041,10.167530,16.514887,38.471443,52.111057,68.546097,17.502024,44.792702
9.974341,10.124669,17.184681,40.683399,54.530994,70.011284,18.066286,45.431278
10.105968,10.095474,17.479969,41.820126,55.806393,70.653885,18.314905,45.715836
10.357578,10.080753,18.077959,43.852283,58.317642,71.612938,18.802000,46.274010
10.610194,10.085539,18.758551,45.811680,60.812778,72.428078,19.281378,46.835407
10.756932,10.090349,19.103302,46.677269,61.914589,72.901230,19.595751,47.074783
11.062272,10.063581,19.848957,48.435299,63.983395,73.635735,20.193207,47.559795
11.311134,10.071053,20.551672,50.475464,66.041824,73.958099,20.676699,48.167522
11.413962,10.111333,20.851343,51.430828,67.064011,74.152817,20.950323,48.405201
11.541314,10.133060,21.094574,52.412411,68.004456,74.241035,21.160740,48.684814
11.665021,10.209713,21.328266,53.394314,69.020996,74.458542,21.407530,48.896694
11.925152,10.372266,21.835833,55.301327,71.201294,74.967491,22.082329,49.508778
12.342449,10.612703,22.787691,58.352741,74.805534,75.507408,23.120790,50.343582
12.681640,10.851325,23.506306,60.209732,76.873627,75.530594,23.716789,50.869911
12.865730,10.956669,23.817410,61.059731,77.684486,75.679291,24.017298,51.253475
13.264304,11.161622,24.252237,62.817024,79.345322,76.135841,24.520216,51.822060
13.634553,11.347257,24.633059,64.116882,81.201477,76.675652,24.968845,52.288502
13.790162,11.402538,24.827761,64.634071,82.052559,76.835739,25.190056,52.506065
14.076457,11.585392,25.719669,65.772034,83.751610,77.306465,25.604073,52.738678
14.295419,11.800616,26.999687,66.534119,84.722206,77.855774,26.080210,52.968662
14.392182,11.897451,27.602345,66.877609,85.017921,78.018349,26.305233,53.133774
14.586857,12.030390,28.736725,67.360626,85.195038,77.900558,26.581257,53.589230
14.742503,12.100301,29.836182,67.454285,85.304504,77.501923,26.769426,53.819946
14.777135,12.129116,30.278564,67.450729,85.346977,77.242355,26.798109,53.715649
14.756636,12.136495,30.985950,67.458855,85.554321,76.724419,26.754189,53.368813
14.814377,12.056576,31.862797,67.612114,85.822197,76.127014,26.792822,53.065739
15.052130,11.960979,33.373302,68.656036,86.346107,75.789185,27.141596,53.299118
15.365879,11.854818,33.900322,69.081871,86.647026,75.828918,27.529413,53.945915
15.554124,11.788061,34.029686,69.221336,86.763802,75.844337,27.668913,54.272991
15.733665,11.718577,34.045120,69.448486,86.871239,75.833862,27.810333,54.580635
16.177078,11.516788,33.749493,69.703468,86.745628,75.977257,28.026939,55.403996
16.459520,11.430523,33.744305,69.744385,86.533180,75.921402,28.151407,55.907932
16.891165,11.281051,33.848137,69.521439,85.878021,75.669853,28.357929,56.579529
17.284584,11.212523,33.934380,68.917137,85.159096,75.589264,28.499758,57.429226
17.621954,11.159404,33.796940,68.822258,84.788033,76.046959,28.620228,58.354698
17.788570,11.133499,33.682877,68.849800,84.752968,76.250031,28.682341,58.803665
18.067223,11.131535,33.732475,69.005470,84.994987,76.365051,28.700926,59.040222
18.185661,11.128228,33.871250,69.109589,85.141869,76.493568,28.647381,59.052593
18.356022,11.150338,34.361614,69.259430,85.263550,76.750809,28.763847,58.981083
18.568893,11.233232,34.789280,69.446060,85.234818,77.165138,28.877663,59.096878
18.809872,11.323137,34.953461,69.494377,85.243797,77.148636,28.915102,59.298496
19.332788,11.575617,35.097687,69.798065,85.397934,76.833366,28.773264,59.730473
19.596136,11.685212,35.078739,70.073914,85.521996,76.778381,28.667852,60.020641
19.873497,11.799377,35.030846,70.343468,85.705811,76.797897,28.517374,60.322506
20.485071,11.975482,34.992401,70.448013,85.785851,76.954506,28.361465,60.995594
21.086784,12.081650,35.372448,70.447922,85.828957,77.207993,28.188677,61.834557
21.407804,12.103267,35.542774,70.484299,85.846436,77.288307,28.109875,62.202904
21.979219,12.109396,36.023960,70.803040,85.894966,77.460846,27.787182,62.799274
22.237047,12.135267,36.306770,70.840286,85.783203,77.589569,27.622282,63.067928
22.522459,12.159072,36.518467,70.981941,85.688599,77.596191,27.421268,63.433174
22.923697,12.094097,36.879135,71.064323,85.676506,77.780922,27.191816,64.056953
23.225687,12.019360,37.071754,71.335899,85.984940,77.679260,26.990467,64.337776
23.345335,11.992456,37.222851,71.421806,86.150635,77.405907,26.885555,64.388046
23.654963,11.850253,37.609432,71.438477,86.128662,76.985939,26.654964,64.851936
23.812498,11.771626,37.729073,71.452858,85.962830,76.869675,26.571831,65.139587
23.958694,11.691883,37.841732,71.477242,85.678688,76.767952,26.492393,65.372879
24.164253,11.543519,37.464413,71.075012,84.778160,76.186287,26.321165,65.565071
24.318314,11.447117,36.675472,70.523094,83.753632,75.268677,26.076296,65.743050
24.370186,11.438341,36.422066,70.086784,83.270447,74.732872,26.002165,65.865730
24.331661,11.424869,35.973442,69.041962,82.395882,73.817162,25.789112,65.811378
24.204105,11.404729,35.755131,67.975006,81.130035,72.926064,25.652472,65.819016
24.154057,11.367298,35.718815,67.453445,80.357948,72.515999,25.619268,65.912193
24.100208,11.333174,35.540695,66.245872,78.594917,71.481926,25.370634,66.134926
23.992188,11.320779,35.155277,64.708740,76.579163,70.219559,25.048302,66.186417
23.747131,11.251254,34.664833,62.848598,74.361862,68.600784,24.453491,65.842308
23.515079,11.279824,34.292725,60.865681,71.982834,66.864319,23.771908,65.239990
23.136969,11.392817,34.282539,59.005390,69.517586,64.957344,23.071342,64.737244
22.977152,11.519943,34.260353,58.059109,68.390457,63.991421,22.767113,64.593735
22.622284,11.711802,34.221157,56.276592,66.295036,61.880871,22.277697,64.089165
22.145689,11.831844,33.686295,54.586288,64.431778,59.888828,22.031816,63.441658
21.769287,11.860765,33.091389,52.850571,62.606018,58.003620,21.906326,63.027096
21.368443,11.830964,32.574947,51.112869,60.558735,55.896027,21.759911,62.565006
21.017542,11.730864,32.141888,49.094391,58.290962,53.576641,21.632618,62.288506
20.863874,11.678506,32.096016,47.992058,57.077518,52.366779,21.598295,62.138737
20.576740,11.590500,32.019428,45.785294,54.637466,50.237221,21.558384,61.713684
20.163315,11.617148,31.892984,43.618931,52.319664,48.296097,21.532654,61.294605
19.968847,11.663048,31.740936,42.540585,51.099892,47.219799,21.568384,61.311588
19.614889,11.763314,31.254745,40.390305,48.668598,44.997032,21.463980,61.445011
19.262070,11.759836,31.031273,38.465481,46.355167,42.821903,21.500357,61.788906
18.983145,11.722656,30.956079,37.615658,45.189911,41.902130,21.600279,61.945732
18.370308,11.607199,30.835388,35.732868,42.772118,40.136124,21.878729,62.258610
17.675678,11.501404,30.911303,33.749046,40.421799,38.246513,22.144674,62.593327
17.377203,11.430730,31.113522,32.843536,39.324234,37.280384,22.235645,62.712624
16.712830,11.290853,31.430531,31.249304,37.160172,35.291565,22.375101,63.042709
16.096054,11.120512,31.590414,29.508522,35.043987,33.102806,22.430841,63.273117
15.792855,11.025215,31.672569,28.543972,33.892609,32.010414,22.403149,63.375416
14.849882,10.783112,31.373734,25.508141,30.417788,28.779505,22.305685,63.277481
14.568915,10.732002,31.227571,24.485479,29.200220,27.682911,22.245741,63.256577
14.152131,10.712209,30.936420,22.535412,26.659168,25.698549,22.185196,63.042965
13.797271,10.715488,30.604603,20.590467,24.040611,23.999828,22.182100,63.034157
13.425950,10.742064,30.310856,18.817699,21.584578,22.072237,22.154028,62.984074
13.238490,10.761376,30.181356,18.013256,20.447620,21.051174,22.135971,62.955250
12.956693,10.798008,29.913002,16.770502,18.482368,19.232639,22.155062,63.128189
12.728779,10.742779,29.712242,15.709213,16.818817,17.625277,22.163734,63.386482
12.632905,10.682522,29.556936,15.220163,16.081053,16.908213,22.160845,63.547638
12.459092,10.561898,29.228436,14.394979,14.559746,15.553160,22.071493,63.656319
12.279716,10.490704,28.998188,13.734391,13.235878,14.358334,21.987820,63.475605
12.155429,10.449328,28.708202,13.447779,12.652230,13.820058,21.952419,63.278778
11.899975,10.382595,28.149090,12.941470,11.616310,12.830729,21.866491,62.898182
11.677714,10.315244,27.620119,12.503172,10.734920,12.008524,21.828205,63.036369
11.578573,10.281435,27.366657,12.306668,10.346345,11.665251,21.814629,63.170883
11.485335,10.246161,27.109739,12.123698,9.988839,11.349424,21.771921,63.282249
11.314494,10.179335,26.633802,11.770206,9.357295,10.761111,21.733961,63.515327
11.198023,10.136538,26.357925,11.614364,9.078870,10.495324,21.685486,63.598408
11.111645,10.093343,26.004917,11.430821,8.822705,10.225853,21.609026,63.529491
10.873350,9.940556,25.422598,11.068193,8.284992,9.673634,21.352587,63.306923
10.764335,9.857700,25.194744,10.908822,8.047933,9.425413,21.223248,63.260384
10.648297,9.763567,24.985107,10.762193,7.829827,9.200771,21.056341,63.176933
10.308057,9.562397,24.537296,10.398690,7.252501,8.576844,20.320438,62.665680
10.081015,9.420122,24.673758,10.145760,6.788143,8.063730,19.718567,61.865459
9.954361,9.393015,24.733620,10.013026,6.491540,7.784848,19.410803,61.129208
9.812187,9.361558,24.504475,9.900670,6.214346,7.448211,18.991306,60.699043
9.748765,9.368736,24.436224,9.839947,6.045186,7.249415,18.746675,60.567951
9.593316,9.273936,24.269806,9.684367,5.683161,6.796451,18.328465,60.513084
9.482124,9.195956,24.078176,9.528170,5.401189,6.437144,18.028677,60.147232
9.438334,9.140738,23.991371,9.466236,5.300568,6.280201,17.863979,59.881481
9.325670,9.046872,23.673876,9.386338,5.134798,5.990043,17.435520,59.083614
9.247644,8.991071,23.505770,9.328446,5.067456,5.828879,17.139732,58.566189
9.156035,8.916764,23.351103,9.275181,5.005499,5.677348,16.832012,58.034546
8.993007,8.858259,23.047642,9.165528,4.850273,5.386202,16.230360,56.679375
8.825022,8.828440,22.359234,8.893069,4.580365,4.992740,15.674620,55.259598
8.722759,8.833854,21.913380,8.747927,4.461372,4.819275,15.409774,54.617828
8.543955,8.851133,20.972376,8.468159,4.251169,4.521760,14.949332,53.468586
8.446774,8.883831,20.576464,8.340063,4.158497,4.413148,14.772361,52.900375
8.370701,8.936338,20.164175,8.251359,4.073235,4.311823,14.623368,52.388756
8.267124,9.038256,19.428928,8.113647,3.922618,4.113905,14.307313,51.308304
8.109712,9.049300,18.694941,7.995468,3.795123,4.026361,14.095407,50.253304
7.986257,9.034174,18.386000,7.977605,3.728033,3.987691,13.910060,49.703251
7.747631,8.982516,17.890667,8.010489,3.634664,4.082484,13.596494,48.710934
7.462786,8.972127,17.359324,8.047004,3.758271,4.303189,13.295000,47.502663
7.318584,8.943748,17.125626,8.054341,3.907294,4.502773,13.192181,46.910820
7.024232,8.893035,16.744593,8.050870,4.148040,4.921309,12.938333,45.696625
6.745088,8.891500,16.457664,7.914695,4.373993,5.793403,12.681509,44.567280
6.629769,8.913227,16.355772,7.838231,4.537063,6.357823,12.586813,44.080078
6.459899,8.996539,16.176397,7.729078,5.019551,7.471077,12.399893,43.364933
6.335179,9.038389,15.952598,7.637335,5.582401,8.912887,12.207443,42.972366
6.252162,9.078402,15.778185,7.631067,6.118942,10.460827,12.052580,42.755615
6.162036,9.107503,15.698645,7.683639,6.739307,12.073347,11.911231,42.425182
6.090682,9.211043,15.656961,7.958010,7.606804,13.850401,11.721834,41.521130
6.026593,9.319456,15.586561,8.540605,9.032665,15.909040,11.559752,40.584373
5.985953,9.428557,15.424646,9.223353,10.704505,17.985920,11.364577,39.760223
5.951392,9.436358,15.209368,10.176789,12.766973,20.064045,11.200664,39.108807
5.936111,9.436270,15.080301,10.840287,13.915142,21.210402,11.154964,38.783916
5.920252,9.406919,14.828342,12.206594,16.174423,23.479733,11.085223,38.431278
5.906489,9.346169,14.615561,13.930575,18.533457,25.735504,11.110917,38.328445
5.944372,9.307003,14.520456,14.811484,19.732391,26.891581,11.099724,38.385014
5.997855,9.341877,14.241247,16.710945,22.190870,29.368145,11.185781,38.744919
6.134578,9.503426,13.924289,18.852188,24.626638,32.014099,11.363420,39.343884
6.211423,9.572510,13.814415,19.966372,25.920807,33.237778,11.452078,39.709312
6.361956,9.690942,13.606929,22.226917,28.491165,35.782997,11.664159,40.441807
6.532321,9.755713,13.451657,24.587151,31.197287,38.335278,11.957789,41.150902
6.655426,9.781655,13.478910,25.743595,32.506809,39.662693,12.091451,41.428482
6.823844,9.802700,13.677224,26.891872,33.847633,41.024113,12.289994,41.770542
7.154551,9.789451,14.136815,29.160376,36.297379,43.671268,12.694621,42.552998
7.344230,9.782348,14.354254,30.303200,37.547058,45.006897,12.884323,42.944321
7.532371,9.804835,14.521417,31.461731,38.800396,46.339935,13.078408,43.342274
7.961617,9.898804,14.840869,33.523655,41.398991,48.906166,13.492395,44.392857
8.231329,9.991249,15.013807,34.527283,42.659019,50.241703,13.758714,44.986713
8.862577,10.065070,15.367479,36.664253,45.236954,52.857410,14.348238,46.269424
9.526750,10.125113,15.809905,38.763008,47.871742,55.254658,14.952304,47.423557
9.823770,10.123781,16.128595,39.793125,49.097797,56.338684,15.224701,47.789227
10.430230,10.143422,16.763630,41.700939,51.535515,58.699116,15.737433,48.539707
10.989045,10.215785,17.358078,43.715446,54.025124,61.042980,16.265362,49.373352
11.291014,10.244242,17.603260,44.682316,55.332375,62.288906,16.527416,49.863613
11.851576,10.442921,18.247997,46.663921,57.914173,64.796608,17.229946,50.752747
12.469864,10.733844,19.179956,48.479156,60.522346,67.157196,18.013609,51.962063
12.789519,10.889505,19.589790,49.311848,61.817646,68.163017,18.472315,52.692101
13.464314,11.126820,20.323887,51.064293,64.502014,70.320709,19.306200,54.151768
14.133757,11.371077,20.944843,52.804901,66.733589,72.142059,20.040277,55.680294
14.442085,11.489249,21.223248,53.569710,67.875145,72.952415,20.376139,56.369041
14.729074,11.578831,21.465532,54.392059,69.065941,73.786766,20.684973,56.944202
15.311963,11.687972,21.830263,56.117634,71.391785,75.185547,21.292471,58.235672
15.604409,11.704598,22.027985,56.978584,72.424301,75.817116,21.591915,58.845623
15.892419,11.703668,22.142197,57.895771,73.419838,76.538658,21.986200,59.449375
16.722366,11.825233,22.350800,60.483696,76.229309,78.364578,23.035400,61.159599
17.073572,11.848099,22.440546,61.292603,77.247444,78.817932,23.341570,61.729420
17.782679,11.888494,22.558647,63.096935,79.364586,79.541260,23.866716,62.873581
18.479729,11.884333,22.875534,64.884224,81.372215,80.085602,24.345030,64.159454
18.795794,11.892668,23.276203,65.646980,82.185379,80.302567,24.631723,64.835083
19.089460,11.913979,23.653555,66.260109,82.873703,80.486214,24.999851,65.508446
19.371916,11.981886,24.063242,66.931213,83.529762,80.542641,25.363310,66.209793
19.955086,12.064533,24.786966,68.270851,84.528427,80.575966,26.022310,67.728981
20.534750,12.129460,25.473141,69.211815,85.003273,80.729813,26.617588,69.049316
21.239962,12.181154,26.091869,69.628815,85.340271,80.554939,27.052975,70.493896
21.554321,12.189952,26.545172,69.686684,85.524345,80.496361,27.298935,70.937668
22.143282,12.288885,27.689186,69.644424,85.953842,80.274963,27.647171,71.580261
22.622877,12.342839,28.747332,69.411804,86.184166,79.993629,27.943748,71.850151
22.954943,12.265563,29.194323,69.133560,86.297379,79.870461,28.122179,72.119072
23.511772,12.063257,30.013323,68.628273,86.683434,79.454315,28.368788,72.415039
23.932585,11.897359,30.943531,67.954285,87.032494,79.150002,28.510605,72.512512
24.111015,11.814825,31.354841,67.537643,87.069290,78.975098,28.569359,72.542061
24.466316,11.635138,31.921310,66.886429,87.074532,78.814102,28.630217,72.670433
24.595341,11.555161,32.064644,66.708473,87.052589,78.637886,28.659178,72.657440
24.719822,11.455400,32.054287,66.535889,87.034019,78.417450,28.599651,72.646439
25.081219,11.260817,31.912804,66.116875,87.039604,77.975868,28.300671,72.625893
25.340786,11.113127,31.864740,65.751587,86.944550,77.335930,28.016481,72.458069
25.461897,11.031648,31.818859,65.525124,86.782585,77.105980,27.882385,72.350037
25.582182,10.811810,31.730009,65.063393,86.219749,76.746552,27.546429,72.151680
25.573324,10.712670,31.661066,64.730957,85.807747,76.537956,27.397203,71.999290
25.527859,10.618837,31.707491,64.273590,85.458984,76.435883,27.332357,71.918152
25.452875,10.446177,31.941734,63.488686,84.913879,76.103699,27.104208,71.776001
25.342394,10.325907,31.954464,63.231743,84.514915,76.110886,26.960798,71.777672
25.241016,10.325548,31.933121,63.281898,84.493813,76.042305,26.875689,71.676086
25.058516,10.202044,31.893354,62.947571,84.407150,75.744217,26.605204,71.530235
24.965309,10.192452,32.008419,62.870598,84.348915,75.593544,26.460047,71.477959
24.913782,10.149186,32.132092,62.759724,84.369759,75.383255,26.246050,71.575172
24.748041,9.998519,32.016239,62.843765,84.402344,75.099266,25.753799,71.808594
24.558376,9.867219,31.873919,63.076809,84.464607,74.973915,25.151014,71.806198
24.412945,9.830894,31.893406,63.263237,84.488777,74.891235,24.943949,71.743477
24.099844,9.788368,31.987892,63.468826,84.470337,74.438019,24.598330,71.415733
23.876150,9.703663,32.036430,63.693439,84.403038,74.135757,24.240864,71.251289
23.760881,9.639859,32.055317,64.059639,84.329063,73.740463,23.969854,71.483780
23.725203,9.621680,32.093464,64.260078,84.343758,73.538948,23.669268,71.690048
23.723106,9.550449,32.147285,64.401154,84.558960,73.237152,23.226921,71.452850
23.589798,9.421021,32.353088,64.405907,84.728241,72.942513,22.848112,71.158974
23.245560,9.314943,32.740108,64.157043,84.399689,72.535675,22.585112,70.636894
22.887245,9.268973,33.091057,63.530441,83.883224,72.260788,22.436283,70.050438
22.718473,9.220181,33.054855,63.275200,83.553986,72.228111,22.355612,69.896027
22.432110,9.082621,32.613140,62.705132,82.944702,72.094513,21.940811,69.551865
22.168541,8.859354,32.129185,62.248173,82.126617,71.890198,21.450758,69.207176
21.909527,8.660744,31.723854,61.957985,81.728226,71.670525,21.106398,68.880730
21.526560,8.474049,31.327799,61.710171,81.373878,71.419937,20.942360,68.563141
21.138990,8.419406,31.051533,61.407829,80.767319,71.199631,20.840551,68.285469
20.969370,8.350677,30.737722,61.126389,80.292160,71.000496,20.839014,68.227470
20.652994,8.256733,30.024277,60.628910,79.252670,70.446609,20.835741,68.446350
20.213596,8.222978,29.941578,60.037483,77.990334,69.455505,20.674484,68.517204
19.934900,8.232821,29.875196,59.688683,77.227882,68.946754,20.572451,68.420868
19.453739,8.231817,29.540852,58.749992,75.752419,67.810211,20.446770,68.297470
19.072346,8.333152,29.138474,57.947990,74.177673,66.526932,20.265594,67.977371
18.897675,8.402018,29.008249,57.446556,73.357162,65.811966,20.177921,67.836227
18.416878,8.765186,28.841166,55.380630,70.786392,63.616547,19.874722,67.721771
17.985912,9.018563,28.689135,53.830837,69.044609,62.217510,19.753906,67.667389
17.773962,9.121647,28.677895,53.010887,68.177483,61.603664,19.691000,67.718666
17.367132,9.323442,28.661776,51.342632,66.369789,60.254154,19.553156,67.877014
16.970907,9.435849,28.686707,49.917667,65.187943,58.567181,19.420462,67.840599
16.811394,9.477969,28.787090,49.258240,64.666908,57.676102,19.310352,67.832291
16.501280,9.529861,28.643074,48.102596,63.268768,55.942688,19.026270,68.007721
16.199446,9.558243,28.256474,46.716930,61.777431,54.320278,18.784498,68.128609
16.073915,9.549247,28.109535,45.870029,60.955822,53.371204,18.668184,68.206406
15.848809,9.508129,27.839972,44.264854,59.214943,51.653782,18.500080,68.460838
15.614839,9.635726,27.737806,42.984081,57.507168,49.997326,18.455559,68.581551
15.493110,9.708478,27.684177,42.332222,56.644215,49.132782,18.546099,68.599220
15.307449,9.743572,27.428995,40.698326,54.713451,47.261208,18.670198,68.548668
15.120247,9.733009,27.155861,38.982399,52.723907,45.365234,18.713293,68.497993
15.089778,9.750659,26.977652,38.006664,51.641148,44.400711,18.728060,68.580437
15.058599,9.742800,26.799778,37.051079,50.561497,43.520042,18.709129,68.703743
15.070158,9.745735,26.640377,36.197800,49.469326,42.732140,18.756899,68.911903
15.071514,9.745103,26.562542,35.461044,48.426601,41.962761,18.828522,69.174889
15.024027,9.767001,26.522953,34.628998,47.322800,41.099270,18.892065,69.263298
14.868468,9.821526,26.495388,32.781731,45.016083,39.408245,18.956575,69.401443
14.797482,9.878734,26.514526,31.838730,43.931538,38.468822,19.048046,69.500313
14.556314,10.040602,26.592480,30.071568,41.603130,36.451359,19.316473,69.792778
14.323046,10.279725,26.945372,28.530886,39.124729,34.388226,19.553703,69.862724
14.255643,10.401834,26.995850,27.863968,38.059772,33.397053,19.686544,69.821198
14.127058,10.703480,26.957867,26.663414,36.785889,31.707594,19.855518,69.756889
14.002583,10.982051,26.960485,25.586573,35.953339,30.100988,19.928915,69.688484
13.945532,11.104862,26.977604,25.007133,35.522499,29.158081,19.936703,69.497147
13.918435,11.440166,27.010199,23.865908,34.498070,27.212664,20.078251,69.472252
13.906593,11.845078,27.061535,22.527651,33.466835,25.510696,20.213734,69.635925
13.900254,12.040774,27.155422,21.750946,32.783218,24.711916,20.251078,69.697350
13.910693,12.251115,27.248035,21.003626,32.087204,23.809278,20.249653,69.722031
13.885520,12.621136,27.561625,19.664099,30.698488,22.036964,20.113834,69.540695
13.858428,12.738476,27.687185,19.130613,29.975985,21.223574,20.051003,69.564468
13.833892,12.951413,27.944300,18.183832,28.724134,19.743059,19.775482,69.413651
13.830062,13.141175,28.061352,17.353251,27.623098,18.506870,19.532150,69.331528
13.814066,13.227827,27.834965,16.979969,27.119577,17.961880,19.451681,69.156769
13.790835,13.339347,27.392109,16.307734,26.230101,17.004719,19.342823,68.802330
13.769164,13.466041,27.132063,15.686079,25.209373,16.072954,19.181347,68.440941
13.757093,13.478760,27.015135,15.412012,24.746891,15.667309,19.164286,68.288879
13.699698,13.530966,26.755466,14.891035,23.872931,14.913720,19.131521,68.068695
13.565623,13.523108,26.327620,14.308574,23.129351,14.153385,19.072298,67.483414
13.491249,13.504865,26.142221,14.051786,22.801535,13.815173,19.046228,67.244797
13.286441,13.445533,25.861563,13.624494,22.202305,13.222646,19.033772,66.824371
13.198077,13.413067,25.677536,13.423755,21.947775,12.942369,19.044497,66.738350
13.090975,13.374855,25.465948,13.259620,21.713596,12.696586,19.065540,66.559608
12.995304,13.339701,25.271280,13.108607,21.494791,12.471004,19.125391,66.359108
12.907076,13.315579,25.114389,12.956358,21.094479,12.263458,19.185627,66.176735
12.850569,13.284851,24.940434,12.816281,20.726175,12.093127,19.220402,65.956619
12.649293,13.221733,24.301701,12.434120,19.830738,11.681602,19.475536,65.403786
12.573877,13.224378,24.120499,12.301807,19.496670,11.537692,19.512318,65.133362
12.413720,13.245245,23.822395,12.108919,18.906532,11.278456,19.597778,64.438133
12.240318,13.216361,23.544334,12.036637,18.290388,10.993162,19.744482,63.719456
12.054420,12.980906,23.085857,11.844661,17.719528,10.709340,19.824640,63.353939
11.779267,12.698683,22.575489,11.582121,17.040943,10.496449,19.629938,62.915668
11.505511,12.453134,22.116957,11.359885,16.466537,10.308733,19.435263,62.266472
10.899402,11.932961,21.554960,10.964568,15.636375,9.962347,18.870533,60.756786
10.564246,11.919577,21.445473,10.750325,15.477830,9.896417,18.568598,59.837601
10.262693,11.932913,21.602264,10.707371,15.351612,9.848490,18.367661,58.666599
10.087794,11.885335,21.607407,10.679039,15.295967,9.781541,18.240322,57.970795
9.772303,11.733475,21.573214,10.564051,15.187974,9.617857,17.817043,56.570538
9.486151,11.507190,21.265930,10.270689,15.087642,9.517993,17.414799,55.450928
9.341539,11.391193,21.067123,10.087237,14.892883,9.466313,17.185484,54.959881
9.111424,11.110463,20.718348,9.743039,13.922677,9.280706,16.820396,54.162277
8.902096,10.831938,20.415068,9.466532,12.701002,9.077278,16.557463,53.476772
8.774983,10.738835,20.271175,9.344629,12.129496,8.982298,16.479185,53.212395
8.491374,10.534944,20.004545,9.082346,11.301348,8.814383,16.254177,52.712360
8.206076,10.295775,19.717085,8.870605,10.571859,8.644676,16.076576,52.080025
8.057961,10.185308,19.536018,8.790961,10.236111,8.569859,16.018887,51.685741
7.907266,10.063280,19.363199,8.717686,9.927207,8.514188,15.973910,51.446968
7.518880,9.740019,18.507643,8.348973,9.070051,8.342306,15.823107,50.844406
7.379660,9.648876,18.220736,8.198838,8.975370,8.298617,15.785708,50.595627
7.125798,9.526305,17.689058,7.925746,8.761118,8.209138,15.703648,49.933018
6.874602,9.419732,17.216143,7.705280,8.579757,8.126384,15.621952,49.383911
