2.874088,10.393489,5.455412,3.037219,4.892946,2.824272,10.439723,33.399712
2.900188,10.551063,5.753939,3.085956,4.612996,2.800767,10.217943,33.607559
2.927770,10.687023,6.107963,3.145399,4.254774,2.772231,9.844823,33.697399
2.967488,10.678425,6.244190,3.177528,4.061152,2.754709,9.523652,33.747005
3.024025,10.687669,6.457136,3.181814,3.824997,2.743696,9.154890,33.647316
3.036824,10.724707,6.494556,3.160733,3.758518,2.739544,9.030512,33.565586
3.042425,10.870141,6.567332,3.123495,3.641079,2.710250,8.775591,33.424786
3.031519,11.099587,6.732131,3.150641,3.541670,2.703789,8.543590,33.230019
3.032918,11.207946,6.809886,3.161658,3.497269,2.689895,8.440451,33.159698
3.056903,11.379273,6.893085,3.171661,3.456418,2.683913,8.360329,33.296974
3.115220,11.799679,7.096575,3.212134,3.488663,2.669448,8.138019,33.253906
3.145904,12.004766,7.121182,3.256037,3.802582,2.651919,8.017159,32.771942
3.170477,12.174837,7.187047,3.296529,4.167537,2.621106,7.913702,32.323467
3.180640,12.290521,7.216085,3.306840,4.291472,2.608225,7.854953,32.232132
3.179121,12.519747,7.327490,3.325055,4.510406,2.584378,7.757451,32.242012
3.216831,12.688000,7.432246,3.349961,4.695728,2.577103,7.748346,32.765163
3.237962,12.747763,7.503738,3.360941,4.777431,2.576637,7.771168,33.069107
3.276592,12.974761,7.631110,3.422871,4.910604,2.547975,7.756936,33.636456
3.297001,13.199894,7.701997,3.576313,5.023333,2.543731,7.629967,33.967175
3.268965,13.579276,7.568293,3.878684,5.149751,2.560718,7.337581,33.488346
3.248195,13.637122,7.506769,3.957406,5.172478,2.554028,7.248893,33.176094
3.220026,13.724345,7.413813,4.096472,5.212625,2.545134,7.101362,32.670654
3.173355,13.789567,7.343181,4.190795,5.246609,2.523377,6.991986,32.040501
3.106123,13.881578,7.262917,4.251481,5.245852,2.465445,6.871523,31.621313
3.065508,13.951061,7.234599,4.268187,5.308846,2.431441,6.828284,31.477863
2.976697,14.014744,7.266195,4.297697,5.420130,2.364351,6.758445,31.230042
2.901520,13.967113,7.281538,4.376748,5.514329,2.329450,6.738217,31.057369
2.856945,13.902694,7.276782,4.402534,5.555858,2.323580,6.729525,30.992960
2.675144,13.657501,7.292107,4.252139,5.566434,2.364850,6.812546,30.613005
2.638271,13.602329,7.345381,4.189803,5.566848,2.382635,6.836644,30.567467
2.573133,13.481239,7.372807,4.118034,5.847795,2.431281,6.840642,30.493517
2.515247,13.382380,7.169429,4.092566,6.076808,2.468868,6.791727,30.399725
2.489004,13.355379,7.031116,4.075721,6.177772,2.507208,6.768836,30.379860
2.411339,13.115252,6.786779,4.038871,6.352768,2.624689,6.744713,30.346619
2.358564,12.994238,6.531664,4.006055,6.654379,3.052829,6.829388,30.213451
2.345967,12.951163,6.396054,3.993938,6.798977,3.321935,6.868413,30.156029
2.379813,13.007586,6.206501,4.013640,7.054414,3.949407,6.970454,30.195814
2.414629,13.050131,6.161709,4.061538,7.167027,4.252264,7.052564,30.256039
2.493914,13.174943,6.312606,4.168038,7.572639,5.096629,7.363511,30.374699
2.554786,13.320457,6.427488,4.289698,8.156845,6.026198,7.650070,30.496258
2.602195,13.405753,6.537677,4.407004,8.651365,6.874053,7.969718,30.575148
2.638538,13.411287,6.624275,4.525078,9.116311,7.714853,8.267666,30.624893
2.656150,13.356667,6.608708,4.548228,9.321289,8.110076,8.396763,30.657259
2.711563,13.232689,6.576105,4.666152,9.857368,8.980460,8.677591,30.733002
2.722022,13.091248,6.547628,4.718141,10.211698,9.474759,8.811881,30.526909
2.772719,12.821983,6.678218,4.844047,10.932882,10.596539,9.090229,30.302879
2.836960,12.552438,6.874694,4.984184,11.266681,11.928968,9.378917,30.157633
2.877302,12.438643,6.961313,5.051898,11.332060,12.585750,9.505263,30.098413
2.983317,12.193233,7.115429,5.171519,11.688239,13.861135,9.799701,29.948359
3.159199,11.930170,7.263827,5.448222,12.236260,15.121949,10.183792,29.724892
3.368889,11.695511,7.419760,5.878617,12.890297,16.416618,10.664395,29.377657
3.537521,11.481677,7.557348,6.302423,13.816558,17.971579,11.224138,28.911480
3.750539,11.170102,7.745820,6.866450,15.149628,19.643646,11.872650,28.790646
3.872488,11.040545,7.828393,7.265534,15.822801,20.446756,12.179692,28.813557
4.083375,10.774503,8.015038,8.059715,17.533373,21.865383,12.767002,29.004858
4.192540,10.616511,8.137662,8.636868,18.535818,22.558260,13.044031,29.130562
4.321527,10.485908,8.271978,9.327897,19.613682,23.251810,13.353238,29.308739
4.705865,10.221450,8.653014,11.444378,23.216080,25.404493,14.234846,29.800182
4.947410,10.134785,9.024846,13.342466,25.703465,27.025967,14.819271,30.139696
5.074484,10.131680,9.237199,14.410824,26.947914,27.914173,15.197824,30.384890
5.450818,10.141918,9.773594,17.885605,30.722816,30.668774,16.376720,30.974138
5.579977,10.107668,9.884737,19.083252,31.935205,31.517950,16.705023,31.219698
5.742043,10.082809,9.996338,20.191711,33.189175,32.302128,17.152912,31.597530
6.114103,10.127773,10.279119,22.543736,35.553295,33.833748,18.131908,32.283291
6.471263,10.171432,10.542475,24.935720,38.033802,35.499180,19.116411,32.894039
6.629777,10.222215,10.672181,26.141809,39.303032,36.331318,19.533607,33.187237
6.935350,10.283168,10.855169,28.523613,41.713997,37.883984,20.249126,33.752083
7.213197,10.392721,11.055932,30.917269,44.156223,39.348015,20.910723,34.248665
7.344303,10.464277,11.233774,32.151947,45.363979,40.111603,21.209164,34.486824
7.630899,10.645286,11.631257,34.432476,47.571033,41.712681,21.978239,34.988766
7.927077,10.778574,12.099435,36.839520,49.872467,43.306885,22.784031,35.631828
8.128565,10.830366,12.324998,38.092548,50.975311,44.054913,23.167587,36.083378
8.341528,10.892740,12.603546,39.353004,52.057011,44.597916,23.486500,36.482853
8.529333,10.918142,12.858472,40.528858,53.117466,45.094578,23.850374,36.740509
8.706842,10.933107,13.093016,41.634472,54.115879,45.486576,24.197701,36.834057
8.862270,10.889509,13.339329,42.739021,55.187038,45.844223,24.497620,36.775875
9.161651,10.828684,13.724682,45.018024,57.378746,46.480354,25.048874,36.534534
9.331764,10.806649,13.857817,46.217167,58.554573,46.746307,25.299534,36.509197
9.603214,10.797780,14.169968,48.301121,60.624500,46.898647,25.760853,36.455051
9.926206,10.969850,14.586662,50.528023,62.754082,47.076855,26.167021,36.588490
10.101647,11.098185,14.798990,51.589806,63.840240,47.241535,26.362341,36.775253
10.461359,11.298777,15.290871,53.591667,66.121948,47.529148,26.681652,37.122974
10.760127,11.448786,16.179903,55.655502,68.529411,47.789074,26.930012,37.567394
10.890385,11.522138,16.669641,56.661545,69.507988,47.765617,27.044363,37.930061
11.144624,11.692645,17.562489,58.838360,71.529869,47.669399,27.263538,38.569397
11.395754,11.856774,18.093006,60.864540,73.305336,47.317425,27.358398,39.087429
11.559725,11.973148,18.370920,61.745342,74.276199,47.245499,27.437523,39.358017
11.884778,12.321718,18.996803,63.415535,76.140671,47.226620,27.684023,40.074680
12.103617,12.620076,19.735933,65.038857,77.830963,47.110195,27.961514,40.696224
12.171469,12.763065,20.184713,65.713219,78.623802,47.171391,28.047789,41.091183
12.288123,13.006919,21.102640,66.933167,79.891068,47.286552,28.125120,41.838947
12.401709,13.289351,22.053286,68.003044,80.682129,46.924835,27.957790,42.784451
12.436429,13.415817,22.427544,68.425003,80.799095,46.647511,27.816950,43.215057
12.534369,13.756720,23.164120,69.308647,81.375549,46.417713,27.701559,43.841682
12.635389,14.124113,23.784184,70.297691,81.826225,46.426731,27.645206,44.309101
12.666865,14.302338,24.017982,70.579666,81.868446,46.471382,27.677528,44.474228
12.674260,14.565523,24.437441,70.976669,81.873955,46.397049,27.628048,45.065510
12.681620,14.871898,25.381615,71.116287,81.218132,45.816742,27.596485,45.897640
12.618441,14.905419,25.746069,70.550850,80.464584,44.981251,27.501789,46.346214
12.599139,14.830888,26.220793,69.521568,79.547218,44.017986,27.123119,46.653152
12.559714,14.789258,26.442610,68.962677,79.075043,43.521393,26.944305,46.878456
12.523441,14.778931,26.666622,68.318848,78.493721,43.052498,26.851732,47.084778
12.450869,14.762778,26.850845,67.719933,77.820358,42.620338,26.625660,47.202366
12.366995,14.783252,27.146835,67.023682,77.200829,42.193066,26.350714,47.315487
12.118446,14.920239,28.067066,64.588745,75.093269,40.553318,25.632420,47.703094
12.009475,14.917097,28.630678,62.883545,73.545624,39.363602,25.309999,48.216358
11.794258,14.942868,29.323664,60.102608,70.882896,37.672428,24.872604,49.100124
11.667630,14.919520,29.574881,58.104271,68.913460,36.470829,24.558897,49.769333
11.601769,14.857201,29.762417,56.195545,67.061485,35.223373,24.107977,50.751865
11.517943,14.807580,29.985390,54.129852,65.173920,33.980869,23.620226,51.765079
11.374195,14.733347,30.206739,52.000721,63.742916,32.986897,23.129837,52.767471
11.303313,14.739710,30.365953,51.017410,63.144569,32.579922,22.893181,53.215191
11.164701,14.865823,30.656586,48.951725,61.768745,31.832096,22.535654,54.168423
10.938820,14.958446,30.869774,46.682476,60.210625,31.017334,22.100658,54.880112
10.847903,14.967999,30.929720,45.643295,59.351410,30.649771,21.896441,55.270905
10.542662,14.657010,30.761198,41.596184,55.510532,29.254087,21.389408,56.638226
10.441906,14.533635,30.724810,40.624664,54.456337,28.871952,21.268858,56.980072
10.266318,14.335192,30.436152,38.626011,52.430744,28.092464,21.158470,57.457054
10.113704,14.266416,29.859621,36.612457,50.449020,27.438286,21.239223,57.826180
10.037827,14.252707,29.744667,35.579185,49.417225,27.141752,21.285097,57.911228
9.935782,14.259160,29.843847,34.513283,48.543827,26.870005,21.332081,57.962303
9.766880,14.357657,29.999638,32.559402,47.093494,26.252289,21.425858,58.317688
9.660928,14.354092,30.052662,31.674076,46.468468,25.939001,21.512178,58.604652
9.489145,14.237980,30.265259,30.179453,45.181664,25.157797,21.628408,59.086082
9.336846,14.168418,30.276653,28.762020,44.111053,24.605154,21.643425,59.473309
9.277263,14.117268,30.187262,28.133511,43.605686,24.199562,21.677999,59.501129
9.191443,13.969501,29.844816,26.298315,42.599117,22.918060,21.796423,59.744179
9.243229,13.817086,29.607092,25.613993,42.145294,22.216282,21.977612,59.723103
9.308363,13.754168,29.491383,25.200886,41.879139,21.717724,22.024799,59.743538
9.361631,13.581478,29.256432,23.958282,41.021427,20.558935,21.950298,59.763565
9.413951,13.458830,29.151594,22.740440,40.245083,19.474712,21.837721,59.890598
9.462417,13.429823,29.126871,22.099371,39.947891,18.944761,21.831264,59.881847
9.631331,13.448024,28.719316,20.062056,38.906399,17.687317,21.815149,60.013866
9.694617,13.461140,28.468004,19.459503,38.872040,17.402603,21.790190,60.011101
9.759092,13.473207,28.257912,18.903994,38.840427,17.140654,21.755880,60.010071
9.891923,13.471936,27.876381,17.896238,38.681370,16.641901,21.691372,59.962334
9.966941,13.461074,27.562469,17.085611,38.451763,16.164692,21.662849,59.715393
10.000013,13.441289,27.403475,16.717146,38.350536,15.951557,21.573200,59.501331
10.050690,13.415736,27.057804,16.113802,38.174854,15.565524,21.391563,59.003059
10.058600,13.328090,26.746218,15.865993,38.019432,15.382071,21.283560,58.850292
10.072277,13.240337,26.459539,15.638000,37.876438,15.239643,21.134472,58.625557
10.065682,13.132566,26.017420,15.268231,37.973980,15.069123,20.840080,58.242939
10.075309,13.101690,25.681221,15.035342,38.008038,14.933027,20.626791,57.741768
10.075570,13.102517,25.593269,14.921840,37.994270,14.857701,20.544134,57.491749
10.119138,13.102221,25.393051,14.753949,37.947834,14.722078,20.371435,57.260994
10.076492,13.061463,25.330240,14.594241,37.930977,14.533153,20.229485,56.622128
10.034452,13.047359,25.192564,14.470754,37.934303,14.418664,20.176758,56.120869
9.967869,13.035190,25.065952,14.372203,37.942730,14.344887,20.140757,55.549610
9.817659,12.928836,24.760811,14.198110,37.559971,14.119760,20.134235,54.339512
9.738088,12.870174,24.535145,14.125795,37.196949,13.976512,20.123125,53.924992
9.620301,12.801524,24.177853,14.008278,36.468868,13.716720,20.166462,53.460865
9.547167,12.678582,23.776960,13.946837,35.745625,13.484528,20.258766,53.032692
9.518856,12.619825,23.583639,13.936124,35.393822,13.388008,20.255405,52.790504
9.417212,12.531473,23.175581,13.822236,34.721188,13.185821,20.172052,52.239014
9.297220,12.440237,22.804920,13.679070,34.151810,13.003473,20.036034,51.697289
9.229719,12.391503,22.617479,13.631750,33.900795,12.932294,19.967148,51.300533
9.105975,12.340849,22.227921,13.558864,33.366608,12.796484,19.820305,50.678890
9.014339,12.283912,21.800947,13.512626,32.823681,12.682177,19.573233,50.178242
8.973891,12.236547,21.642727,13.516788,32.603382,12.611707,19.436007,49.941086
8.888313,12.050639,20.843964,13.429131,32.000069,12.472760,19.108297,49.629951
8.773318,11.807948,20.067381,13.291830,31.088316,12.312908,18.772871,49.053101
8.703173,11.713962,19.696636,13.216387,30.474234,12.127058,18.547850,48.625900
8.528566,11.725430,18.771204,12.899537,29.300743,11.833946,18.040400,47.799866
8.370772,11.819459,17.885691,12.548822,27.863180,11.442080,17.518114,47.014404
8.306643,11.902822,17.457752,12.395282,27.135540,11.234395,17.260986,46.640873
8.147121,12.067253,16.532566,12.148932,25.697422,10.858952,16.765030,45.708553
7.896752,12.238067,15.683739,11.683259,24.308504,10.565864,16.241859,44.492779
7.728421,12.321451,15.344431,11.348291,23.576193,10.441125,15.987744,43.936111
7.342147,12.382776,14.764177,10.756560,22.207794,10.230401,15.509774,42.735455
7.037674,12.309594,14.256676,10.264770,20.967688,10.154886,15.244719,41.727177
6.887139,12.273825,14.017810,10.044497,20.250977,10.088264,15.104889,41.185471
6.579980,12.250041,13.574251,9.652355,18.857880,9.960256,14.730304,39.997795
6.287210,12.166076,13.207998,9.312387,17.482656,9.897795,14.275978,38.848190
6.139747,12.108338,13.055247,9.170218,16.637074,9.816075,14.061049,38.385109
5.698195,12.069718,12.656897,8.543701,14.059215,10.165489,13.313029,36.898758
5.617260,12.106200,12.563158,8.400368,13.636245,10.394877,13.167499,36.527084
5.506234,12.202880,12.353939,8.142159,12.987252,11.032430,12.910415,35.852261
5.434625,12.307849,12.344868,7.867495,12.657591,11.899202,12.673126,35.147617
5.375223,12.358902,12.380857,7.874900,12.551285,12.309562,12.550357,34.883396
5.345449,12.467383,12.384200,7.940281,12.451550,13.026621,12.266793,34.200802
5.328485,12.592225,12.304993,8.003513,12.535846,13.670540,11.974598,33.499718
5.301251,12.741830,12.130420,8.110694,12.721408,14.352151,11.718577,32.796085
5.271725,12.812999,12.021562,8.155704,12.847041,14.769863,11.667128,32.437645
5.267604,13.172877,11.695652,8.437059,13.835192,16.446917,11.586217,31.659645
5.271114,13.431688,11.545752,8.782032,15.063442,17.513597,11.585331,31.244377
5.264054,13.665497,11.518795,9.107405,16.496405,18.496819,11.509341,30.611103
5.243752,13.717876,11.506178,9.369751,17.342701,19.034851,11.417542,30.065298
5.208138,13.719984,11.602763,9.958154,18.993710,20.102673,11.223582,28.988979
5.159090,13.755165,11.702151,10.583126,20.529341,21.196190,11.016129,28.045614
5.124342,13.772991,11.749925,11.061668,21.393734,21.723209,10.959260,27.576086
5.036800,13.896871,11.848365,12.344928,23.305798,22.765448,10.884108,26.652721
4.988523,14.064655,11.944752,13.773450,25.304829,23.698133,10.934189,26.033552
4.965491,14.360419,12.251450,16.471344,28.654827,24.933779,11.286312,25.144497
4.947270,14.523602,12.483587,18.355295,30.836882,25.813587,11.463785,24.487963
4.965213,14.671451,12.586346,19.343618,32.016773,26.396936,11.543776,24.131647
5.054799,15.077936,12.816633,21.550312,34.514301,27.706621,11.774136,23.557726
5.276630,15.797406,13.470787,25.238045,38.444141,29.624990,12.292827,22.932695
5.419201,15.925202,13.731141,26.475643,39.802013,30.288515,12.471689,22.714678
5.829027,16.270247,14.515201,30.101934,43.670883,32.046688,12.984729,22.685219
6.080299,16.399624,14.974809,32.363506,46.257717,33.185509,13.648609,23.290146
6.203764,16.466921,15.188902,33.462784,47.605217,33.737904,14.026006,23.549311
6.752692,16.711966,15.943653,37.797501,53.217056,35.695026,15.563437,25.095356
6.895385,16.780748,16.141186,38.887794,54.617138,36.032085,15.872810,25.442600
7.177660,16.888365,16.494736,41.091469,57.393715,36.800522,16.524807,26.163250
7.323640,16.911224,16.677732,42.165577,58.799297,37.171444,16.840034,26.496851
7.444485,16.936508,16.909193,43.232452,60.155575,37.536808,17.140524,26.831429
7.546709,16.959772,17.112274,44.214359,61.498352,38.004272,17.422054,27.139252
7.702921,17.087454,17.318651,45.247643,62.863384,38.456364,17.722586,27.439453
7.867181,17.225027,17.564785,46.353352,64.243500,38.872299,18.015615,27.714033
8.222167,17.616131,18.193745,49.697552,68.077118,39.757084,19.160257,28.664057
8.321658,17.727638,18.311350,50.680592,69.228172,39.926544,19.600864,29.015354
8.412297,17.835194,18.419554,51.743652,70.371140,40.166153,20.000141,29.325619
8.498172,17.963062,18.579592,52.771858,71.559479,40.375919,20.402758,29.620468
8.561852,18.081421,18.921013,53.874523,72.689575,40.450134,20.781065,29.944237
8.866432,18.389904,19.598509,56.962505,75.789520,40.835045,21.739088,30.686062
9.012811,18.535757,19.899529,58.645279,77.148460,41.015427,22.292681,30.872812
9.128631,18.573565,20.070236,60.087444,78.431915,41.171383,22.768063,31.071308
9.219762,18.653013,20.121040,60.865875,79.122726,41.208183,22.978317,31.324322
9.403455,18.767855,20.263556,62.327122,80.297661,41.198017,23.290823,31.927502
9.573834,18.851763,20.443521,63.859058,81.284042,40.770466,23.441435,32.536072
9.643353,18.855518,20.570011,64.653130,81.787552,40.565132,23.499289,32.811741
9.718528,18.864634,20.682657,65.455467,82.213768,40.430866,23.529406,33.030769
9.787904,18.865967,20.830126,66.325539,82.574547,40.348553,23.548639,33.267681
9.964062,18.839901,21.134962,68.117142,83.265640,40.236572,23.598743,33.743565
10.162156,18.882568,21.229275,69.507484,83.420921,39.876957,23.715284,34.279316
10.321430,19.022669,21.250099,70.693634,83.585701,39.429737,23.734489,34.848656
10.389814,19.106674,21.241650,71.384018,83.863365,39.106747,23.739813,35.112217
10.566010,19.193413,21.263998,72.076271,84.129890,38.528156,23.633595,35.745308
10.746005,19.213453,21.342262,72.491882,84.208420,38.081272,23.396156,36.213669
10.797965,19.179750,21.466969,72.745583,84.275078,37.853367,23.275087,36.344074
10.906824,19.038809,21.606497,72.807838,84.148643,37.549820,22.865665,36.528667
11.028857,18.928009,21.654339,72.779144,84.272354,37.423893,22.460964,36.698978
11.108047,18.853794,21.721544,72.736221,84.316551,37.365044,22.295713,36.904648
11.262343,18.576210,21.781929,72.550941,84.385643,36.928982,22.064905,37.350136
11.363542,18.212484,21.658224,71.979866,84.307327,36.247639,21.660439,37.688370
11.422778,17.658283,21.284355,71.061157,84.019043,35.543434,21.309181,38.191376
11.431721,17.388544,21.142813,70.721336,83.876686,35.087296,21.144823,38.489902
11.484163,16.640287,20.661154,69.502975,83.643387,34.321114,20.656925,38.863503
11.507837,16.284046,20.517612,68.864258,83.295425,34.092098,19.958807,38.523487
11.491447,16.034498,20.509800,68.444984,82.688515,33.922955,19.227840,38.123528
11.286629,15.608731,20.547655,67.648132,81.811920,33.756672,17.759018,36.976631
11.135500,15.468247,20.639776,66.710724,81.015884,33.491734,16.998995,36.576229
10.970122,15.403002,20.640312,65.618416,79.866631,33.137150,16.265001,36.280476
10.900827,15.387188,20.610315,65.098839,79.203613,32.822292,15.930010,36.185898
10.676657,15.188913,20.553696,63.776245,77.726891,32.168152,15.255808,36.304459
10.519958,15.032370,20.584223,62.226048,76.152756,31.525471,14.499868,36.584816
10.459367,14.968628,20.700706,61.617252,75.629936,31.273991,14.021793,36.772240
10.367877,14.797324,20.927593,60.286949,74.410583,30.856377,13.092513,37.430592
10.356840,14.600591,20.849396,58.973770,72.956451,30.320250,12.347675,38.305248
10.240705,14.306643,20.481075,56.849632,71.202049,29.223553,11.681324,40.007969
10.143606,14.068974,20.293922,55.441116,70.099808,28.517937,11.486454,41.150162
10.097718,13.882254,20.134958,54.096054,68.868599,27.910259,11.439533,42.136864
10.048637,13.539618,20.110313,52.677338,67.511017,27.312616,11.558034,42.928787
10.013550,13.193916,20.087486,51.104961,66.298622,26.702705,11.871907,43.718006
10.004377,13.003652,20.084538,50.318226,65.592857,26.423351,12.048501,44.029282
10.019637,12.655107,20.131128,48.642365,64.189941,25.933865,12.415441,45.026791
10.070345,12.351671,20.044672,46.784218,62.577011,25.184338,12.894589,46.232227
10.093380,12.229018,19.956537,45.892052,61.804886,24.858761,13.131218,46.829983
10.316162,11.430863,19.888727,42.121593,58.217720,23.563248,14.061337,50.005325
10.350396,11.325123,20.027061,41.413197,57.373657,23.380821,14.265680,50.549198
10.428136,11.138773,20.188084,40.119797,55.942348,23.014420,14.636894,51.801556
10.512813,10.963486,20.208681,38.514969,54.320503,22.569021,15.011595,52.998184
10.603971,10.891706,20.274923,37.704979,53.486679,22.334152,15.182650,53.670349
10.808243,10.823168,20.447311,36.146957,51.720291,21.751499,15.555532,55.163033
10.968863,10.772236,20.947842,33.693935,48.704636,20.673050,15.956423,57.171886
11.011035,10.746163,21.151089,32.838810,47.613491,20.375174,16.076580,57.767090
11.059525,10.717566,21.654182,31.377438,45.607388,19.891424,16.323944,59.053131
11.169843,10.772784,22.995239,28.627848,43.005566,19.355368,16.958868,61.427555
11.193916,10.829494,23.575022,27.325241,41.642956,18.796375,17.351868,62.749714
11.188635,11.010320,23.999250,25.892462,40.608200,18.148447,17.723249,64.110741
11.195567,11.074965,24.224119,25.112499,40.144310,17.801388,17.872570,64.837349
11.267982,11.160133,24.558462,23.444574,38.937412,17.082233,18.150867,66.505859
11.346771,11.194571,24.791142,21.938425,37.331993,16.415800,18.414610,68.110420
11.398122,11.198593,24.855865,21.286448,36.493439,16.119123,18.538868,68.791626
11.500485,11.172634,24.824545,20.123960,35.012108,15.611866,18.771864,69.866066
11.557889,11.132689,24.783512,19.612032,34.349274,15.386847,18.876732,70.342575
11.689819,10.963756,24.743279,18.280415,32.888504,15.183275,19.202356,71.588173
11.741677,10.688882,24.293482,17.107712,31.766418,15.082374,19.572824,71.977531
11.728671,10.589740,24.021446,16.659273,31.250267,15.003389,19.694731,72.043022
11.696061,10.531687,23.519773,15.875044,30.223709,14.584732,19.914389,71.877785
11.646323,10.528367,23.298603,15.439109,29.717289,14.367151,19.988602,71.727753
11.640197,10.504649,23.061550,15.003923,29.251362,14.166965,20.045763,71.517990
11.631024,10.478106,22.836876,14.600831,28.632843,13.954056,20.094648,71.253555
11.617880,10.438958,22.416510,13.848802,27.580927,13.595569,20.085194,70.782257
11.621011,10.409045,22.217451,13.525543,27.167534,13.444777,20.032658,70.582169
11.600657,10.331554,21.932320,12.972305,26.501879,13.155145,19.850859,70.304657
11.558612,10.272580,21.710770,12.513743,25.890474,12.851467,19.629818,70.089272
11.460419,10.229410,21.386515,12.087757,25.310970,12.570810,19.254837,69.591858
11.360288,10.311696,21.017021,11.712248,24.740936,12.347285,18.814905,69.039970
11.295732,10.360094,20.786848,11.506730,24.440720,12.200643,18.601641,68.683502
11.169052,10.563859,20.316702,11.078164,23.705631,11.862200,18.104160,67.729134
11.082452,10.872128,20.079140,10.893479,23.020552,11.544995,17.575163,66.834129
10.983739,11.019775,20.140335,10.728732,22.860632,11.448751,17.320185,66.406258
10.795296,11.285322,20.386267,10.518358,22.578127,11.297022,16.861408,65.439896
10.625020,11.397394,20.506918,10.249103,22.276089,11.147450,16.433073,64.536865
10.544067,11.444068,20.466845,10.076191,22.110294,11.056542,16.206659,64.050476
10.436199,11.503254,20.429976,9.938882,21.957758,10.961905,16.025389,63.500324
10.235679,11.679576,20.346794,9.696324,21.519451,10.873044,15.700952,62.437630
9.997624,11.889358,20.161646,9.491005,21.136454,10.816631,15.435392,61.251781
9.504647,12.153119,19.310776,9.179850,21.182110,10.720883,15.014469,58.996025
9.380886,12.213052,19.014690,9.121035,21.295315,10.729299,14.954114,58.530067
9.260739,12.264096,18.691921,9.019790,21.456020,10.697958,14.925379,58.059269
9.048673,12.337247,18.024694,8.766668,21.592798,10.588202,14.875497,56.992847
8.810233,12.464674,17.275846,8.574395,21.147509,10.429277,14.764423,55.818867
8.652200,12.488710,16.850946,8.436727,20.805397,10.297475,14.668495,55.259449
8.263062,12.527414,16.085447,8.187704,20.061161,10.060718,14.442881,53.866673
7.937159,12.459112,15.471087,7.956132,19.318575,9.810574,14.288890,52.344223
7.789573,12.344112,15.143064,7.824217,18.851381,9.692565,14.232772,51.538033
7.542894,12.254995,14.445035,7.582802,18.294704,9.779702,14.108905,49.900406
7.289966,12.172968,13.760657,7.366121,17.876396,9.890276,14.091304,48.259445
7.180474,12.202997,13.441401,7.245360,17.727293,9.933202,14.035419,47.719994
6.960366,12.299397,12.874454,7.040587,17.580526,10.064145,13.947099,46.894108
6.731371,12.471405,12.376904,6.875893,17.641624,10.280147,13.869371,46.194817
6.640146,12.571342,12.159663,6.803285,17.705950,10.409734,13.821500,45.766457
6.500921,12.779089,11.728023,6.675021,17.641567,10.455387,13.689712,44.972855
6.366687,12.950726,11.345684,6.566448,17.488613,10.544993,13.572003,44.063980
6.253633,13.070154,11.018064,6.519814,17.408615,10.862129,13.477553,42.935669
6.152405,12.994527,10.816967,6.628880,17.932701,11.331254,13.444919,41.730473
6.007183,12.896552,10.675776,7.037324,18.693707,12.023247,13.398540,40.592709
5.926214,12.865808,10.596357,7.270618,19.192139,12.563760,13.407940,40.134201
5.754582,12.901587,10.439653,7.726408,20.102518,13.871312,13.425205,39.152225
5.614558,12.966447,10.327420,8.097973,20.847977,15.026430,13.493898,38.146019
5.555062,13.010697,10.281177,8.335729,21.175726,15.641331,13.577706,37.654099
5.428324,13.095927,10.162045,8.883190,22.237774,16.962040,13.782698,37.081123
5.245772,13.210918,9.980228,9.633121,24.050400,18.942461,13.977856,36.531479
5.152779,13.193488,9.897921,10.293386,25.645689,20.208086,14.083158,36.176979
5.031617,13.113485,9.770519,11.364345,27.563951,21.362545,14.327687,35.723804
4.959352,13.015336,9.686691,11.801763,28.484665,21.918238,14.466240,35.532379
4.932279,12.829082,9.225376,13.056366,30.245325,23.042940,14.993731,35.037144
4.919578,12.719879,8.594700,14.237228,31.760181,24.206890,15.535657,34.489880
4.913125,12.701289,8.263469,14.937200,32.599663,24.941362,15.771985,34.194302
4.933990,12.776718,7.683311,16.574913,34.357025,26.262377,16.305773,33.682987
4.977691,12.879871,7.241877,18.455191,36.264450,27.420185,16.788809,33.338245
5.106896,13.017519,6.631652,22.269770,40.140480,29.376848,17.809868,33.779663
5.142364,13.161402,6.402910,24.163626,41.953808,30.366617,18.194733,33.716274
5.154889,13.202983,6.315850,25.153917,42.795956,30.974167,18.506802,33.601162
5.192093,13.272733,6.144559,27.292303,44.642010,32.139256,19.052185,33.532024
5.221581,13.329577,6.060657,28.360510,45.609539,32.707832,19.302044,33.533360
5.402469,13.502277,5.745885,31.828686,48.838795,34.475109,20.138918,33.566910
5.594545,13.614157,5.889519,34.110382,51.116116,35.599377,20.558125,33.872574
5.799702,13.699540,6.392961,36.462589,53.451321,36.989525,20.954729,34.360966
5.898222,13.737182,6.618296,37.637466,54.632832,37.792675,21.139872,34.598728
6.142455,13.721363,7.348145,40.927494,58.001068,39.740654,21.743418,35.289211
6.256053,13.672343,7.989589,43.096203,60.278393,40.790894,22.077074,35.622997
6.362398,13.514805,8.581764,45.468632,62.648975,41.885315,22.600386,35.373348
6.418933,13.393188,8.847018,46.604172,63.654842,42.427399,22.880327,35.317093
6.470949,13.272248,9.091064,47.797695,64.718651,42.936241,23.145708,35.455456
6.534463,13.132202,9.373973,48.900684,65.755676,43.317459,23.415253,35.722652
6.641209,12.893605,9.912075,51.293194,67.953857,44.129387,23.917814,36.292500
6.700765,12.780134,10.154525,52.564903,69.106491,44.516766,24.229059,36.586205
6.808540,12.622312,10.582816,55.160984,71.142982,45.180302,24.805521,37.208889
6.949529,12.598229,11.309583,58.430309,73.721512,46.101009,25.661533,38.197170
7.043114,12.542578,11.690208,60.236980,74.740898,46.709923,26.246391,39.115513
7.139118,12.460882,12.021354,62.072960,75.761993,46.885983,26.808720,39.887939
7.179958,12.390368,12.167315,63.059654,76.338860,46.834015,27.008720,40.159538
7.335751,12.248857,12.437019,65.135849,77.526779,46.818142,27.361477,40.679104
7.506793,12.126478,12.726133,67.225410,78.941696,46.838108,27.662867,41.345749
7.613654,12.068102,12.861963,68.187714,79.593834,46.877808,27.755287,41.462387
7.812778,11.950299,13.255965,70.273323,80.887459,46.698620,27.945959,41.410122
8.031243,11.829548,13.681613,72.146530,82.161201,46.481125,28.207434,41.431904
8.366858,11.673039,14.431765,74.605667,83.293983,46.424839,28.382124,41.787621
8.565584,11.629291,14.912195,75.651093,83.589691,46.562538,28.347345,42.281796
8.622165,11.624812,15.131889,76.083740,83.874985,46.664082,28.192427,42.496284
8.724443,11.660705,15.542204,76.658577,84.248764,46.570091,27.770626,43.024792
8.906789,11.738696,15.929956,77.242805,84.902168,46.280464,27.403975,43.792717
8.977465,11.732216,16.100628,77.367386,85.170090,46.113224,27.177183,44.331589
9.117081,11.646137,16.476545,77.509369,85.324997,45.893074,26.754927,45.245014
9.358722,11.756413,16.956905,77.682320,85.947029,46.302956,25.943302,45.921925
9.415967,11.767292,17.093348,77.771797,86.095543,46.425632,25.665482,46.126560
9.991132,11.701367,17.749071,78.860199,86.489174,46.881336,24.090578,47.371861
10.096437,11.773968,17.969637,78.985558,86.421501,46.966267,23.691660,47.616722
10.324050,11.919524,18.677891,79.227295,86.231407,46.945751,22.957336,48.101315
10.469930,12.043517,19.358870,78.950378,85.867912,46.828857,22.164629,48.358727
10.521270,12.083656,19.608761,78.747780,85.579048,46.754402,21.802555,48.355736
10.644234,12.161798,19.662855,78.235405,84.787941,46.458775,21.113461,48.463974
10.779225,12.223229,19.492741,77.811966,84.158943,45.699951,20.432844,48.709999
10.847287,12.263420,19.428516,77.666557,83.757523,45.310925,20.088484,48.835491
10.965195,12.366920,19.164026,77.632591,82.957207,44.721176,19.416534,48.983707
11.140792,12.549065,18.888285,77.625633,82.384483,44.416218,18.756855,49.219879
11.211331,12.701959,18.774508,77.517395,82.162231,44.350590,18.378443,49.323673
11.304379,12.962628,18.567181,77.271416,81.537254,43.924679,17.545713,49.454624
11.361379,13.262124,18.347069,76.831932,80.847740,43.534470,16.820425,48.914333
11.394511,13.359000,18.220119,76.554031,80.524445,43.285122,16.496424,48.778530
11.423139,13.525537,18.002062,75.633972,79.565994,42.639481,15.814382,48.382103
11.446748,13.658498,18.074913,74.536369,78.677666,42.082123,15.052339,48.142422
11.464244,13.683121,18.429337,73.468445,77.683266,41.288540,14.286024,47.898746
11.469748,13.780597,18.928202,71.986252,76.328201,39.974983,13.057164,47.304798
11.485491,13.955964,19.300838,70.756012,74.995132,39.072922,12.257988,46.960423
11.514318,14.088667,19.600622,70.006020,74.184364,38.573265,11.909336,46.878319
11.518056,14.253707,19.931767,69.224083,73.296089,38.040581,11.561852,46.882011
11.506310,14.431942,20.261316,68.376389,72.430046,37.535019,11.243819,46.878628
11.424613,14.775026,20.800468,66.557350,70.474686,36.491707,10.588243,46.802120
11.327018,15.104070,21.385235,64.718742,68.279182,35.353260,9.972902,46.733856
11.223918,15.414753,21.922222,62.824535,65.930450,34.364017,9.476696,46.921978
11.164998,15.577709,22.124769,61.922798,64.697540,33.908657,9.272642,47.108837
11.011647,15.896802,22.596458,60.001236,62.520512,32.931633,9.034153,47.406563
11.012410,16.278429,23.008413,58.171913,60.766911,31.857691,8.955603,47.701385
11.071359,16.449192,23.273399,57.390072,59.866177,31.332272,9.064254,47.880463
11.217607,16.744478,23.779327,55.641418,57.988621,30.323788,9.294140,48.229603
11.316428,16.869846,24.243179,53.918957,56.040142,29.359278,9.573010,48.502274
11.345062,16.916290,24.448410,53.009857,55.051395,28.927097,9.757284,48.722347
11.505051,17.032774,25.006365,50.250160,52.231750,27.672701,10.326314,49.266678
11.566545,16.875229,25.397356,48.318775,50.115791,26.577749,10.744716,49.912632
11.602848,16.765753,25.613935,47.393639,49.040115,26.000120,10.972296,50.149342
11.652245,16.727388,25.860134,46.412697,48.071354,25.475430,11.197453,50.383320
11.670406,16.684731,26.536798,43.088638,44.827473,23.826130,11.886110,51.283630
11.646763,16.691566,26.809582,41.873306,43.642418,23.200510,12.117166,51.556118
11.604651,16.591095,27.250830,39.501144,41.403564,21.985277,12.482023,52.095207
11.554803,16.442404,27.383715,37.119339,39.233982,20.948025,12.906320,52.775982
11.559290,16.369871,27.419258,36.055519,38.217999,20.506332,13.091226,53.176254
11.555130,16.266901,27.413578,34.256290,36.358181,19.700556,13.420805,53.904938
11.504735,16.218578,27.376520,32.474697,34.901268,19.068192,13.718126,54.178337
11.471004,16.217236,27.363068,31.547209,34.373413,18.881245,13.864431,54.265823
11.417834,16.217518,27.402422,30.650723,33.724548,18.715450,14.014083,54.332993
11.382243,16.204670,27.555944,29.713718,33.151779,18.565672,14.178364,54.442337
11.397635,16.326775,28.121925,25.677090,30.976154,17.503012,15.032000,55.394779
11.582000,16.102915,28.530729,21.754261,28.640858,16.234510,15.898030,57.299118
11.688264,15.980364,28.697193,20.041071,27.383533,15.842656,16.380722,58.495625
11.826142,15.938955,28.843575,18.538372,26.524979,15.603437,17.066191,59.613308
11.999979,16.010122,28.776661,17.109062,26.177889,15.505788,17.806883,60.449986
12.089043,16.039549,28.588165,16.480919,26.054646,15.523324,18.140194,60.856678
12.309619,16.040598,28.089043,15.382509,26.189428,15.620279,18.748356,61.846359
12.527016,16.061960,27.843548,14.313678,26.764278,15.850209,19.299065,62.757660
12.625034,16.031271,27.790800,13.762904,27.068546,15.961847,19.548773,63.208305
12.755646,15.794567,27.577738,12.815578,27.673687,16.146461,19.979841,64.034088
12.841387,15.456694,27.142414,11.983730,28.373533,16.377897,20.421602,64.442421
12.874866,15.291292,26.909912,11.614071,28.692369,16.507496,20.662851,64.603729
12.925229,14.660235,25.847546,10.325773,29.715261,17.070169,21.452984,64.983055
12.936448,14.471333,25.528570,10.061126,29.909702,17.181587,21.572882,65.009117
12.939660,14.185943,24.956793,9.606524,30.238768,17.408415,21.625135,64.718292
12.828175,13.816835,24.200302,9.116814,29.909798,17.583055,21.472755,64.009666
12.681719,13.636577,23.889759,8.927840,29.779760,17.654764,21.345335,63.679203
12.413398,13.383595,23.296656,8.594015,29.542889,17.741972,21.091537,63.186287
12.268627,13.285789,23.038092,8.438137,29.454430,17.797745,20.976278,63.100906
12.135431,13.208209,22.872810,8.333119,29.295341,17.791998,20.832972,62.940346
11.740695,12.955650,22.554413,8.125387,28.851961,17.732986,20.318571,62.098442
11.339398,12.755486,22.224285,7.850408,28.483170,17.641361,19.830341,60.863880
11.079115,12.603897,21.964893,7.627316,28.237429,17.575840,19.414534,59.892990
10.831374,12.599874,21.632633,7.429148,28.016531,17.527342,19.036905,59.013283
10.688002,12.594195,21.544552,7.345517,27.910614,17.480452,18.809967,58.629017
10.396027,12.517892,21.253460,7.197781,27.742788,17.412243,18.479902,57.804531
10.143576,12.413738,20.821306,7.067107,27.529865,17.304668,18.180540,56.973835
9.993123,12.346983,20.583691,7.011720,27.406790,17.227650,18.026133,56.483765
9.691607,12.198435,20.139496,6.870325,27.051359,17.023409,17.758554,55.546268
9.419580,12.010056,19.741007,6.792220,26.747980,16.812267,17.538305,55.087688
9.124500,11.726475,19.196236,6.673839,25.742563,16.310818,17.425961,54.722652
8.945509,11.628135,18.639235,6.506911,25.233299,15.975602,17.294842,54.405186
8.820716,11.503144,18.376846,6.476456,24.993229,15.921482,17.153391,54.127808
8.544270,11.262829,17.848873,6.410649,24.226269,15.823866,16.938955,53.643082
8.278017,11.137098,17.396967,6.339661,23.531105,15.797079,16.652103,52.783310
8.198689,11.132164,17.220228,6.308428,23.220602,15.779217,16.547745,52.556850
8.038917,11.129010,16.940729,6.253253,22.611107,15.749806,16.295914,51.866692
7.898945,11.143131,16.711935,6.202930,21.882498,15.666858,15.877898,50.963905
7.818867,11.079198,16.549896,6.175364,21.454622,15.608660,15.586074,50.533245
7.507558,10.984598,16.241653,6.228860,19.173386,14.992183,14.573747,49.047997
7.399660,10.983362,16.236473,6.270740,18.438866,14.775704,14.383025,48.655025
7.219237,10.928004,16.235929,6.302499,16.831259,14.252419,14.048925,47.977741
7.083777,10.910496,16.057711,6.291949,15.318761,13.784221,13.820679,47.291618
7.024570,10.915893,15.948450,6.269579,14.584315,13.576545,13.737765,46.951195
6.914520,10.948974,15.792581,6.293762,13.192842,13.128167,13.540515,46.327457
6.805169,10.901428,15.794289,6.463964,11.492005,12.483048,13.116361,45.323704
6.778773,10.867544,15.743292,6.483715,11.013205,12.283444,12.991163,45.004826
6.720530,10.838807,15.659646,6.507980,10.182710,11.974939,12.843089,44.396053
6.696855,10.838573,15.550590,6.495958,9.541408,11.943150,12.766213,43.913876
6.723557,10.880732,15.432646,6.426865,9.281490,12.028297,12.763372,43.744698
6.760329,10.919570,15.224296,6.340328,8.968423,12.241663,12.695821,43.303944
6.815077,11.064816,15.340156,6.305465,8.709558,12.450327,12.612501,42.803181
6.825967,11.134495,15.408444,6.305939,8.610380,12.581317,12.568646,42.410702
6.872872,11.268084,15.313011,6.246276,8.293721,13.023607,12.444336,40.915695
6.888955,11.299803,15.199795,6.147655,8.172359,13.458345,12.654264,40.380268
6.943505,11.307494,15.132725,6.104176,8.113280,13.713621,12.796345,40.360115
7.042302,11.393870,15.002810,6.075958,8.008917,14.150527,13.022178,40.315502
7.114875,11.464275,14.868766,6.102211,8.301895,14.557992,13.232918,40.415401
7.144488,11.397412,14.805985,6.133593,8.520246,14.793736,13.340681,40.618534
7.209090,11.205100,14.607547,6.188314,9.026690,15.496209,13.568521,40.755566
7.281538,11.034842,14.349128,6.319103,9.529325,16.205708,13.713377,40.777607
7.304034,10.979556,14.247982,6.405378,9.778634,16.592779,13.762410,40.788265
7.358518,10.949952,14.059997,6.547115,10.225266,17.353970,13.932837,40.819679
7.429670,11.054009,13.904447,6.724339,10.672737,18.340164,14.112088,40.819008
7.470180,11.119171,13.879396,6.918781,10.900525,18.854721,14.240085,40.784016
7.530033,11.220130,13.911316,7.360810,11.691894,19.871517,14.401080,40.379398
7.534567,11.322853,14.008417,8.124005,12.464561,20.792582,14.526481,39.938049
7.535080,11.397229,14.037350,8.556317,13.097661,21.281368,14.596820,39.877373
7.559057,11.508117,14.059166,9.431798,14.348051,22.192047,14.753531,39.899639
7.601530,11.654478,14.077874,10.203071,15.696857,22.986530,14.784676,39.811710
7.630517,11.756170,14.085047,10.763453,16.499386,23.303553,14.826196,39.838577
7.586985,11.787921,14.095874,11.846392,17.981356,23.872118,14.879076,39.561256
7.503812,11.793909,14.140866,12.877917,19.590452,24.415886,15.040986,39.129410
7.465370,11.796885,14.156083,13.378439,20.344976,24.671221,15.184504,38.903061
7.375263,11.815432,14.286808,14.440542,21.863272,25.143034,15.451620,38.716839
7.236022,11.740551,14.477172,15.893701,23.492729,25.990685,15.728904,38.507221
7.169751,11.702632,14.535185,16.725843,24.461737,26.381294,15.865582,38.436485
7.058837,11.613901,14.565914,18.391329,26.585779,27.393763,16.083570,38.422604
6.995336,11.618412,14.318860,20.323936,28.807831,28.434433,16.295740,38.455872
6.956898,11.616626,14.189586,21.413065,30.011278,29.003450,16.370096,38.574848
6.926321,11.582058,14.070647,22.568316,31.200525,29.525158,16.448660,38.672195
6.846358,11.515447,14.045636,24.938011,33.712273,30.574289,16.646040,38.974201
6.813274,11.469675,14.079586,25.994213,34.961876,31.048901,16.779003,39.183498
6.795055,11.427611,14.007325,28.217459,37.367813,32.040302,17.019150,39.695805
6.801206,11.386831,13.964783,30.492710,39.838406,33.034256,17.221046,40.527378
6.806617,11.377739,13.976006,31.583771,41.140911,33.467705,17.273386,40.917450
6.806567,11.306442,13.983463,33.844311,43.819855,34.339973,17.311590,41.563568
6.794027,11.159263,14.076601,36.303421,46.321358,34.803585,17.361387,42.194824
6.844204,10.846304,14.288036,39.953907,50.131893,35.784191,17.593866,43.479565
6.834138,10.734683,14.327755,41.212456,51.453976,36.047859,17.660591,43.971443
6.829125,10.581252,14.439272,42.508286,52.657505,36.288471,17.730814,44.515835
6.859787,10.339941,14.674193,45.192600,55.194424,36.863155,17.959578,45.682762
6.950708,10.209677,14.779009,47.818634,57.734684,37.432163,18.112610,46.563419
7.001960,10.200045,14.785200,49.070934,58.855621,37.753185,18.154430,46.882442
7.058951,10.140854,14.933866,51.553329,60.991463,38.259605,18.252705,47.352062
7.214538,10.188246,15.103311,53.987686,63.180824,38.970226,18.393291,47.859364
7.282907,10.234925,15.207527,55.181263,64.264870,39.292076,18.436024,48.077484
7.591766,10.558399,15.826297,59.677975,68.018356,40.244659,18.847263,48.299328
7.682072,10.629924,15.989903,60.709805,68.967041,40.441727,18.968517,48.448280
7.841597,10.709335,16.290102,62.662815,70.855705,40.690987,19.132910,49.072819
7.972164,10.638201,16.564602,64.753754,72.661919,40.715336,19.279352,49.809704
8.043592,10.612899,16.687332,65.701736,73.614105,40.602150,19.331587,50.170593
8.169314,10.536873,16.942024,67.348831,75.312050,40.338722,19.367323,50.775921
8.282538,10.488214,17.016994,68.820801,76.989037,40.149815,19.472954,51.379021
8.323887,10.555538,17.163101,69.531906,77.723900,40.001179,19.472870,51.637508
8.343913,10.633305,17.396605,70.115547,78.345947,39.807781,19.487171,51.801876
8.406076,10.917186,18.032972,72.403175,80.429749,38.700432,19.567648,52.370937
8.452910,10.998082,18.520384,73.468010,80.980209,38.289680,19.624720,52.796303
8.538410,11.066448,18.993364,74.699089,81.790184,37.950497,19.662783,53.317219
8.572528,11.123909,19.174580,75.371796,82.244652,37.778206,19.647081,53.516624
8.618020,11.207139,19.846449,76.811111,83.373108,37.596855,19.597841,53.746029
8.695226,11.276983,20.465725,78.008919,84.370811,37.497890,19.496668,53.793629
8.746073,11.285398,20.764492,78.367439,84.699615,37.416687,19.417925,53.866486
8.894018,11.400764,21.343975,79.064026,85.144890,37.219841,19.388700,53.930187
9.030774,11.516135,21.882074,79.600227,85.429527,36.880390,19.455647,53.934074
9.187572,11.836747,22.685743,79.606865,85.503891,36.162064,19.577616,54.137676
9.303250,12.039013,23.102249,79.165161,85.394180,35.675415,19.548786,54.643364
9.352607,12.128182,23.250130,78.950287,85.254807,35.551769,19.467325,54.901241
9.411243,12.237904,23.667969,78.503609,85.087234,35.145481,19.339077,55.454086
9.419218,12.370420,24.213966,77.861374,84.567787,34.710117,19.268188,55.646370
9.428567,12.423673,24.424702,77.487206,84.317390,34.602661,19.271690,55.838409
9.437959,12.542106,24.886024,76.572708,83.561859,34.333183,19.377802,56.399151
9.392010,12.796869,25.293007,75.269615,82.755798,33.961060,19.475433,56.962193
9.331275,12.924581,25.494379,74.584846,82.192841,33.610168,19.479734,57.196106
9.136385,13.530493,25.943781,70.286972,78.438820,31.999281,19.450371,57.466137
9.131890,13.662315,26.028316,69.262924,77.566277,31.637138,19.406509,57.617493
9.139315,13.904643,26.482389,67.482040,75.763412,30.708019,19.277897,58.037796
9.061277,14.129687,26.831362,65.713722,74.238472,29.703724,19.122576,58.047569
9.007723,14.257648,27.092663,64.752838,73.446350,29.215639,19.117498,58.077145
8.824170,14.399282,27.676517,62.900841,71.610260,28.114355,19.074200,58.019279
8.657581,14.479492,28.135818,61.108063,69.626602,27.132643,19.041553,58.263626
8.584329,14.530009,28.438070,60.330620,68.735931,26.605417,19.000120,58.380726
8.509057,14.575171,28.607134,59.461929,67.825508,26.167318,18.943876,58.504959
8.304193,14.738069,28.854473,57.638622,65.885422,25.269148,18.892134,58.926907
8.237790,14.946074,29.014315,56.782871,64.925552,24.845583,18.879316,58.967613
8.176696,15.155257,29.173876,55.955120,63.980999,24.457991,18.865044,58.873093
8.102000,15.370635,29.325886,55.048439,63.105843,24.094810,18.817587,58.742710
7.940982,15.678123,29.578335,53.229633,61.122482,23.447536,18.697910,58.836246
7.854702,15.822373,29.700855,52.341156,60.161789,23.107151,18.641424,59.092800
7.723742,16.081104,29.933805,50.600140,58.178513,22.422094,18.500853,59.528294
7.695947,16.211863,30.069130,49.691578,57.099796,22.075258,18.413197,59.827953
7.662768,16.297949,30.132532,47.965611,54.781384,21.531105,18.330774,60.142593
7.631820,16.391632,30.132719,46.414360,52.479908,21.102648,18.347155,60.330780
7.620704,16.403290,30.170307,45.525814,51.263138,20.896397,18.389378,60.493992
7.596291,16.423887,30.150780,43.725803,48.977837,20.587635,18.556213,60.973412
7.540398,16.466791,29.871376,41.679749,46.615784,20.264898,18.675388,61.400173
7.554023,16.478197,29.729124,40.712051,45.366604,20.108541,18.757702,61.569115
7.612319,16.481998,29.576437,38.583992,42.760624,19.761852,18.862581,62.298599
7.634463,16.489248,29.410521,37.430111,41.412964,19.579487,18.917952,62.700974
7.650583,16.495916,29.205166,36.349876,40.149628,19.387928,18.999182,63.043663
7.663064,16.563622,28.781038,34.186382,37.656673,18.744053,19.173008,63.893600
7.633234,16.583529,28.594234,32.044327,35.261154,18.175869,19.336594,64.706863
7.615223,16.585508,28.586025,30.902906,34.048260,17.816635,19.376968,65.042419
7.690394,16.482744,28.582850,28.722357,31.608080,17.185555,19.306597,65.691170
7.793048,16.432127,28.579050,27.704136,30.557249,16.919327,19.256639,65.978104
7.869535,16.387434,28.485249,26.721977,29.811581,16.721264,19.234039,66.103889
8.009646,16.361729,28.384871,24.863003,28.255823,16.332844,19.192587,66.068390
8.108151,16.382002,28.392954,24.027756,27.595057,16.089172,19.303219,66.092972
8.187830,16.432730,28.363689,23.147558,26.879934,15.882687,19.393238,66.130035
8.409070,16.687565,28.223852,20.873468,25.286963,15.357921,19.577251,66.355064
8.461078,16.738691,28.169718,20.240940,24.818943,15.178565,19.640532,66.444260
8.511794,16.793400,28.158421,19.630924,24.388348,14.987457,19.653654,66.548370
8.598164,16.760313,28.069420,18.513496,23.409237,14.762968,19.643078,66.573959
8.668925,16.667027,27.971300,17.625265,22.545929,14.603839,19.580688,66.524399
8.753895,16.549887,27.972324,17.220762,22.165327,14.532778,19.576855,66.640442
8.895156,16.446922,28.127968,16.423616,21.771564,14.377579,19.598953,66.889618
8.974657,16.417538,28.307959,15.738563,21.873245,14.352880,19.846861,66.724640
8.982927,16.358452,28.402845,15.521664,21.970898,14.401569,19.931618,66.499092
8.972748,16.189240,28.445940,14.913958,22.204199,14.490746,20.139975,66.231438
8.949780,15.942745,28.540751,14.546429,22.362925,14.569139,20.235609,66.088982
8.933379,15.826490,28.459415,14.384457,22.397062,14.593263,20.182257,65.971695
8.927739,15.559568,28.083466,14.029428,22.457369,14.578830,20.079384,65.933846
8.896978,15.271459,27.722046,13.685518,22.420500,14.470223,19.955164,65.529579
8.848642,15.102210,27.072554,13.209736,22.149101,14.217143,19.678770,65.068214
8.865029,14.866313,26.716953,13.065235,21.909781,14.023180,19.582949,64.630836
8.911360,14.490680,26.406672,12.940096,21.647648,13.786973,19.504713,64.523773
8.972316,14.153539,26.182562,12.859783,21.467173,13.584598,19.480148,64.191673
9.050079,13.852426,25.923910,12.732235,21.200974,13.460755,19.453346,63.543449
9.076338,13.754823,25.803982,12.706324,21.083614,13.431431,19.475952,63.111549
9.067392,13.558098,25.483604,12.547639,20.879934,13.324899,19.472321,62.249630
9.103296,13.424221,25.111851,12.330766,20.645864,13.146052,19.453314,61.482689
9.101369,13.322131,24.970989,12.182133,20.511520,13.057169,19.403576,60.988602
9.211067,13.049108,24.452227,11.684651,20.073309,12.596437,18.973961,59.923035
9.228785,12.957378,24.387823,11.557319,19.984743,12.446885,18.893246,59.748081
9.155059,12.784187,24.163897,11.352203,19.828289,12.174075,18.638565,59.308151
9.115161,12.610771,23.822109,11.202017,19.695858,11.915214,18.365833,58.914036
9.127184,12.533994,23.635498,11.144620,19.680716,11.804755,18.238794,58.941200
9.106443,12.347553,23.281300,11.083560,19.653967,11.645723,17.994692,58.712051
9.104724,12.237992,23.068647,11.001184,19.625162,11.547739,17.806942,58.604065
9.068096,12.037395,22.787258,10.855661,19.574276,11.407845,17.507986,58.148842
8.944084,11.937187,22.490288,10.733220,19.569178,11.335553,17.256548,57.485764
8.555341,11.894002,22.048943,10.568653,18.725523,11.150443,16.877319,56.195370
8.291911,11.857515,21.630186,10.613577,17.802231,10.915103,16.557510,55.327278
8.040104,11.727773,21.153896,10.510973,16.859758,10.671969,16.233059,54.491974
7.916720,11.634754,20.924021,10.410793,16.409552,10.550354,16.110386,54.114609
7.722944,11.577672,20.718052,10.202638,15.326171,10.194599,15.857335,53.360905
7.566009,11.693958,20.449831,10.043771,14.291215,9.750011,15.588711,52.493530
7.496201,11.736855,20.313717,9.980246,13.834939,9.523426,15.465139,52.096985
7.350637,11.819150,20.142790,9.963526,13.028913,9.106966,15.284816,51.425797
7.168885,11.926019,19.871149,10.007818,12.226873,8.731967,15.034716,50.603874
6.926735,12.064146,19.317410,10.315922,10.615323,8.134271,14.510999,49.559090
6.798299,12.173161,18.742329,10.282473,9.427466,7.643417,14.199204,49.060360
6.741512,12.254980,18.443819,10.253111,8.878095,7.423856,14.050250,48.815353
6.629665,12.425084,18.000443,10.054361,7.909261,7.039116,13.768018,48.274036
6.521342,12.649783,17.598806,9.886008,7.090673,6.720013,13.534215,47.656281
6.465166,12.769595,17.491663,9.808035,6.729786,6.579485,13.441413,47.346191
6.415316,12.879828,17.409733,9.693816,6.458451,6.441555,13.366163,47.126194
6.337894,12.980984,17.272385,9.516679,5.979131,6.199523,13.145427,46.572323
6.316610,13.018694,17.245815,9.438993,5.767815,6.117988,13.045031,46.222748
6.241045,13.013685,17.240244,9.161535,5.530731,5.994676,12.827104,45.853703
6.123744,13.002687,17.204012,8.879005,5.300581,5.879360,12.587972,45.458473
5.963614,12.994897,17.072260,8.637890,5.084197,5.833204,12.450536,44.797050
5.860068,13.116975,16.938210,8.398194,4.879627,5.809304,12.363775,44.255909
5.813101,13.163898,16.885750,8.294123,4.788692,5.782680,12.350565,44.105412
5.745395,13.220966,17.067265,8.274919,4.628053,5.767833,12.249562,43.926586
5.646682,13.159814,17.370153,8.389754,4.557450,6.011902,12.245061,43.779129
5.590271,13.122734,17.468023,8.500038,4.571851,6.258763,12.273273,43.734737
5.460483,13.077592,17.671345,8.658858,4.646906,6.740663,12.315038,43.455566
5.316418,13.039014,17.919386,8.817746,4.726051,7.223328,12.332840,42.918293
5.259436,13.019538,18.007351,8.887794,4.760943,7.458879,12.316004,42.521572
5.185768,13.023513,18.128887,8.999837,4.822582,7.961106,12.291739,41.931717
5.162646,13.070700,18.207651,9.021691,4.849755,8.169337,12.268913,41.795078
5.099490,13.148812,18.345615,9.059197,4.921265,8.909122,12.273712,41.230434
4.984901,13.265553,18.479517,9.171977,4.834483,9.657738,12.258651,40.370041
4.953556,13.364500,18.609570,9.283100,4.945588,10.054903,12.252808,40.159264
4.944962,13.601671,18.593592,9.465134,5.141859,10.808662,12.374645,40.012466
4.896436,13.731909,18.477547,9.685788,5.828659,11.619643,12.488585,39.995869
4.867433,13.779303,18.450813,9.813210,6.251878,11.970353,12.541066,39.998104
4.843915,13.898030,18.419857,10.329358,7.199296,12.847834,12.836018,40.180515
4.848729,13.953856,18.457485,10.620629,7.819391,13.505228,13.013521,40.260174
4.853603,13.996336,18.513515,10.930443,8.577741,14.161595,13.201764,40.480358
4.914145,14.019938,18.636444,11.748231,10.429502,15.404013,13.576509,41.086861
5.005905,14.061693,18.729614,12.793733,12.465915,16.530239,13.948591,41.586136
5.060798,14.063545,18.661396,13.463156,13.527556,17.085472,14.171336,41.837677
5.192016,13.998369,18.514263,14.840148,15.858933,18.269194,14.733336,42.210365
5.262059,13.903572,18.449396,15.618857,17.108526,18.960892,15.037032,42.333359
5.480267,13.635108,18.065008,17.990904,21.003616,20.678867,15.810620,42.889626
5.562109,13.430040,17.777605,19.484491,23.744081,21.948027,16.297472,43.172668
5.657115,13.158402,17.769686,21.092831,26.548435,23.150190,16.846615,43.556305
5.725279,13.029978,17.840425,21.814512,27.981976,23.840744,17.056089,43.708664
5.781184,12.887158,17.969919,22.533964,29.432535,24.658306,17.392763,43.887150
5.882298,12.621560,18.228899,24.088419,32.245758,26.380262,17.978830,43.925426
6.026684,12.394509,18.388670,25.895247,35.027905,28.134647,18.658278,44.143147
6.281430,12.212440,18.469482,28.034344,37.898750,30.092968,19.277424,44.800022
6.539098,12.027648,18.425989,30.384312,40.774853,31.969671,19.831762,45.336315
6.771234,11.950704,18.431080,32.880669,43.652603,33.885929,20.391891,45.927238
6.999697,11.876468,18.352993,35.367653,46.241020,35.656387,20.886511,46.483429
7.286074,11.799513,18.590811,37.885841,48.860336,37.296146,21.500935,46.896622
7.448582,11.788505,18.823566,39.202873,50.079742,38.115307,21.880421,47.184349
7.723662,11.754193,19.246023,41.763428,52.588066,39.685745,22.544159,47.747688
8.092793,11.654263,19.611624,44.224590,55.196655,41.185074,23.253555,48.414730
8.243875,11.652061,19.746668,45.371094,56.549858,42.021816,23.812559,48.679550
8.551173,11.775377,19.892000,47.447140,59.332607,43.807045,24.974617,49.369015
9.031987,11.963887,19.969385,49.427158,62.122948,45.169029,26.116161,50.150806
9.311028,12.053219,20.004953,50.422245,63.500366,45.649269,26.599491,50.648148
9.836352,12.255697,20.471565,52.480896,65.905190,46.617310,27.520195,51.579514
10.334771,12.452910,20.984728,54.360516,68.355888,47.579617,28.561432,52.371002
10.548490,12.594331,21.271345,55.257881,69.612122,48.096943,29.106861,52.761032
10.919086,12.817072,21.725113,57.295521,72.236313,49.116409,30.227365,53.339508
11.360250,13.091065,22.283457,60.426426,76.245132,50.479530,31.864281,53.627201
11.523959,13.209620,22.486704,61.444431,77.551048,50.793255,32.378311,53.745365
11.985133,13.324407,23.025839,64.039124,81.010063,51.216522,33.738728,53.971279
12.285192,13.364607,23.364037,65.958397,83.271591,51.391869,34.400997,54.261677
12.492146,13.396513,23.545671,66.966972,84.217545,51.457352,34.803699,54.549797
12.952413,13.400871,23.808243,68.680740,85.776413,51.601215,35.679523,55.034016
13.470937,13.357792,23.994616,70.455742,87.076729,51.409653,36.312412,55.324051
13.713871,13.391895,24.064060,71.325340,87.558891,51.346466,36.615208,55.340599
14.468308,13.664757,25.006680,74.177277,88.331131,51.236523,37.965454,55.310368
14.606546,13.787880,25.364769,74.582695,88.440559,51.265987,38.266331,55.175007
14.712429,13.876298,25.694227,74.964676,88.533188,51.334270,38.449993,55.054111
14.933757,14.066240,26.354095,75.688934,88.677948,51.113800,38.752693,54.873409
15.023746,14.149980,26.661007,75.986008,88.596931,51.030621,38.868538,54.713127
15.233565,14.412793,27.297070,76.464371,88.267448,50.985775,39.133572,54.525948
15.455646,14.663335,27.756620,77.075294,87.924828,50.709305,39.345589,54.394184
15.579735,14.799152,27.850010,77.281868,87.753899,50.730747,39.374039,54.260521
15.907598,15.225113,27.769896,78.324951,87.278824,50.484837,39.594460,54.128639
16.166855,15.510451,28.119629,79.007088,86.906204,49.553017,39.615879,54.527508
16.193441,15.528090,28.252995,79.049126,86.798569,49.154427,39.589920,54.518509
16.167788,15.517049,28.515553,78.735916,86.502525,48.086533,39.577057,54.366043
16.180895,15.575998,28.649473,78.444099,86.387642,47.534126,39.663311,54.281597
16.236839,15.874874,28.875275,77.591377,85.917000,46.650051,39.819546,54.099636
16.321390,16.059895,29.523254,76.669502,85.243851,45.646442,40.132008,53.950756
16.350037,16.159855,29.855803,76.286087,84.843559,45.209717,40.238693,53.881138
16.336140,16.404865,30.348385,75.331230,83.744118,44.290173,40.257320,53.525200
16.257000,16.595634,30.643595,74.048683,82.611389,43.300720,40.196480,53.028908
16.019611,17.046066,31.187212,72.007500,80.493584,41.786625,40.117455,52.529320
15.877979,17.298641,31.553202,70.659523,78.810089,40.548157,39.517540,52.106392
15.764715,17.291466,31.693268,70.085793,77.895111,39.884949,39.162819,51.850430
15.600739,17.267891,31.884663,69.423042,76.936836,39.304523,38.794445,51.614628
15.418739,17.281981,32.035660,68.751465,75.924217,38.717773,38.413036,51.402111
15.200917,17.274145,32.257729,67.981384,74.862541,38.204319,38.061398,51.169224
14.797874,17.188181,32.257584,66.415108,73.025223,37.137806,37.376427,51.033909
14.409384,17.092251,32.122520,65.038498,71.039284,36.029949,36.595894,50.748524
14.238464,17.021574,31.986370,64.362885,69.987938,35.431713,36.177380,50.590622
13.787260,16.838036,31.994802,62.008934,66.528732,33.528294,34.781563,50.599483
13.672114,16.751652,32.012386,61.143414,65.292786,32.872009,34.323105,50.708881
13.460455,16.585083,31.939117,59.456669,62.934200,31.663876,33.595860,50.855083
13.235778,16.552216,32.035362,57.935688,60.663685,30.645329,32.930374,51.021435
13.130916,16.575680,32.065380,57.088303,59.450550,30.164820,32.610592,51.050766
12.853579,16.653858,32.254753,55.334908,56.901825,29.209259,32.123367,51.031296
12.685502,16.700230,32.356735,54.345131,55.583534,28.755943,31.875929,50.889385
12.546149,16.780567,32.436356,53.434490,54.391781,28.339596,31.542507,50.809925
12.214983,16.965281,32.609791,51.560150,51.997990,27.655319,30.942083,50.845024
11.764955,16.941563,32.964314,48.222462,48.348434,26.176376,30.110050,51.053173
11.528172,16.844568,32.716934,45.900322,46.119984,25.179829,29.436249,51.200676
11.373138,16.674944,32.243038,43.836323,43.960224,24.110035,28.686813,51.397907
11.321213,16.592232,32.085190,42.866123,42.819191,23.573946,28.366337,51.456093
11.163848,16.391417,31.784660,40.724483,40.380405,22.526901,27.899416,51.476559
11.078927,16.216530,31.495024,38.617619,38.179203,21.510521,27.583977,51.581699
11.076838,16.014744,31.210905,36.494671,35.964031,20.660753,27.415865,51.886215
11.100382,15.846555,31.128675,34.376270,33.671951,19.745304,27.343960,52.524906
11.060943,15.740368,31.143330,32.173401,31.232626,18.630758,27.065708,53.134125
11.159250,15.801125,30.880463,30.117054,28.864786,17.660616,26.711315,53.485920
11.311628,15.889259,30.489309,28.096855,26.421438,16.718367,26.343493,54.041386
11.475409,15.974115,30.191208,26.395729,24.257343,15.987390,26.010733,54.627140
11.650737,16.017591,30.277573,25.063009,22.244875,15.384117,25.591825,55.402218
11.763699,15.863945,30.777916,23.933531,20.432575,14.696735,25.208811,56.146564
11.797981,15.770051,30.842209,23.400097,19.669281,14.373484,24.966457,56.529995
11.821789,15.674421,30.784006,22.776970,18.955128,14.059950,24.743479,56.932285
11.845585,15.293904,30.288250,20.991610,17.900141,13.422592,24.266420,57.904961
11.882936,15.196781,30.084290,20.437561,17.728525,13.288362,24.090363,58.229969
11.971001,14.997313,29.704754,19.506155,17.445070,13.066743,23.732065,58.714012
12.062239,14.618110,29.303007,18.808081,17.475285,12.883566,23.379240,58.937931
12.090351,14.414640,29.152617,18.471361,17.497829,12.778176,23.207928,58.987186
12.187813,14.115251,28.685284,17.708525,17.457554,12.520166,22.985653,59.200428
12.301833,13.826361,28.146709,16.972759,17.431234,12.295806,22.765064,59.318325
12.355818,13.705956,27.822262,16.648386,17.474388,12.168517,22.701290,59.289074
12.464415,13.534396,27.297665,15.980480,17.584219,12.001317,22.722998,59.044445
12.589731,13.387849,26.955029,15.337311,17.893019,12.000041,22.780001,58.944115
12.656164,13.349698,26.874607,15.080400,18.029161,11.993461,22.884178,58.859066
12.816237,13.300827,26.397974,14.318257,18.382305,11.964480,23.214375,58.438156
12.905260,13.268357,26.106157,13.933769,18.583088,11.903603,23.366322,58.239445
12.952751,13.240646,25.987339,13.850262,18.714590,11.852887,23.420069,58.336472
13.021173,13.084395,25.554001,13.708939,19.041790,11.772151,23.563620,58.312431
13.102445,12.854990,25.185204,13.551792,19.328943,11.702846,23.759089,58.211945
13.148592,12.736854,24.888540,13.477883,19.455538,11.676034,23.864634,58.227810
13.181797,12.498438,24.364473,13.411333,19.645096,11.602752,23.879360,58.119450
13.097261,12.165849,23.868097,13.417890,19.771238,11.385761,23.853926,58.034180
13.059558,12.024504,23.640535,13.437686,19.826849,11.259160,23.789494,58.077171
13.041138,11.998879,23.366539,13.575879,20.174143,11.116528,23.683277,58.058575
13.049379,12.041630,23.241886,13.654528,20.402292,11.085894,23.625853,57.909042
12.970265,12.236713,22.999065,13.863853,20.932011,11.137867,23.356455,57.368336
12.948547,12.315295,22.893267,13.913348,21.067297,11.207047,23.335257,57.256485
12.926220,12.482856,22.985466,13.974166,21.306284,11.334527,23.158083,57.085033
12.886106,12.582989,23.057241,13.986430,21.429087,11.385376,23.070164,56.959351
12.841531,12.668891,23.130840,13.997717,21.542068,11.446545,22.913790,56.788120
12.697134,12.806911,23.301355,14.019374,21.741381,11.440877,22.611237,56.338551
12.575725,12.914288,23.339466,13.991411,21.850618,11.411652,22.404461,56.118816
12.466346,13.004012,23.328287,13.924567,21.970695,11.392170,22.197128,55.856209
12.255333,13.098385,23.286728,13.691765,22.125294,11.345164,21.878517,55.259624
12.083796,13.052907,23.447552,13.569414,22.188396,11.317514,21.814968,54.972374
11.315087,13.032845,24.067888,13.369793,22.488592,11.153379,21.647682,53.129520
11.110326,13.033435,24.212599,13.235133,22.421165,11.086445,21.619320,52.537018
10.686476,12.950787,24.253914,13.005643,22.125170,10.973494,21.575411,51.307816
10.288337,12.831513,23.766369,12.708009,21.977524,10.832824,21.582735,50.101002
10.116241,12.784615,23.517559,12.519476,21.894928,10.746220,21.613134,49.406090
9.812414,12.733665,23.078026,12.186429,21.567253,10.496248,21.632069,48.140343
9.516651,12.736457,22.698284,11.890598,20.768970,10.194262,21.629599,47.393604
9.364618,12.706562,22.564980,11.760177,20.354261,10.022495,21.597095,47.127289
9.074958,12.692016,22.270947,11.524252,19.477987,9.654225,21.498508,46.606758
8.770301,12.722030,21.965286,11.282716,18.464926,9.350301,21.370113,46.113400
8.496437,12.828132,21.655233,11.185654,17.530598,9.055176,21.304289,45.559193
8.226148,12.984686,21.369453,11.127207,16.784386,8.831015,21.218906,45.297707
8.097647,13.049559,21.254217,11.112432,16.451279,8.725883,21.168015,45.272396
7.853103,13.185649,21.048018,11.095508,15.726396,8.528376,20.967180,45.084362
7.729508,13.219987,20.883499,11.088047,15.383622,8.427553,20.780420,44.916866
7.587318,13.271291,20.668762,11.091780,15.062109,8.256485,20.614799,44.688091
7.308614,13.315528,20.160564,11.024357,14.641601,7.999325,20.214970,44.376865
7.065111,13.252059,19.748150,10.928253,14.336843,7.838554,19.770103,43.988125
6.735015,13.223938,19.391853,10.823569,13.992236,7.756683,19.302557,43.141350
6.631331,13.229484,19.293571,10.787746,13.883825,7.754954,19.178581,42.683701
6.538502,13.240020,19.183668,10.715819,13.740419,7.738417,19.051052,42.281178
6.442997,13.325307,18.909159,10.622005,13.690101,7.810610,18.819225,41.474426
6.344674,13.430749,18.663712,10.674055,14.319133,7.875329,18.600229,40.591934
6.286262,13.450694,18.561386,10.688643,14.678728,7.885504,18.526699,40.140175
6.181260,13.558032,18.458723,10.669884,15.323365,7.959254,18.449129,39.228825
6.061324,13.679810,18.300739,10.651575,15.877689,8.081053,18.420740,38.030827
5.915287,13.649208,17.938749,10.556569,16.149649,8.175028,18.425140,36.818409
5.634068,13.545914,17.209845,10.294880,16.353031,8.097733,18.674709,35.038548
5.507719,13.422359,16.873135,10.196862,16.730608,8.119087,18.796274,34.486012
5.446668,13.235178,16.350500,10.175886,17.138208,8.194683,18.924273,34.236626
5.348684,13.058238,15.877944,10.161152,17.528002,8.386095,19.018335,33.972618
5.299430,12.997236,15.597272,10.132641,17.697132,8.474725,19.052649,33.753666
5.252599,12.812510,15.163795,10.093602,17.976332,8.662364,19.152790,33.234257
5.276246,12.651247,14.457813,10.165843,18.276295,8.938551,19.133265,32.600014
5.294908,12.597682,14.118895,10.191630,18.408850,9.066218,19.090523,32.483727
5.362036,12.529430,13.573668,10.063733,18.694954,9.322967,19.008059,32.354565
5.442761,12.467810,12.791951,9.871827,19.000368,9.775309,18.973988,32.313141
5.508914,12.443065,12.222473,9.866346,19.155031,10.200529,18.960609,32.348217
5.559867,12.421168,11.787122,9.878667,19.189020,10.589800,18.748060,32.392433
5.578324,12.442779,11.811070,9.934989,19.181339,10.805959,18.700602,32.432945
5.599132,12.515053,11.923589,10.043765,19.174271,11.004832,18.685040,32.467319
5.695549,12.713950,12.135662,10.237092,19.161789,11.336969,18.659311,32.442501
5.758095,12.856242,12.180099,10.392843,19.380888,11.529652,18.750937,32.295715
5.940017,13.249967,12.295954,11.412374,20.870277,12.170834,19.220167,31.902294
6.033756,13.366489,12.358575,12.582314,22.521370,12.604484,19.568455,31.799271
6.174371,13.311498,12.701571,14.554696,25.308430,13.255653,19.858837,31.661150
6.373246,13.267789,13.290591,16.119005,27.394350,13.965086,20.173725,31.855913
6.464236,13.251556,13.590147,16.875935,28.388361,14.285163,20.314384,31.959389
6.625490,13.307678,14.195827,18.497133,30.421494,15.009000,20.668024,32.195316
6.778976,13.371510,14.754883,19.987745,32.091782,15.626840,21.155376,32.560394
6.856074,13.403124,15.027231,20.664972,32.924248,15.957559,21.428062,32.892876
7.144126,13.474127,15.535063,22.591850,35.240326,17.270281,22.154264,33.875774
7.286681,13.540497,15.949780,23.975100,36.815434,18.508646,22.499348,34.556946
7.339641,13.556149,16.138803,24.634855,37.674236,19.110268,22.633406,34.912647
7.379131,13.548464,16.516438,26.213045,39.135521,20.315125,22.840118,35.401287
7.472002,13.576664,16.877214,27.547411,40.023830,21.488310,23.140606,36.033062
7.524629,13.623964,17.074005,28.267485,40.575069,22.102064,23.344088,36.453487
7.652514,13.671453,17.410912,29.807619,41.989658,23.147751,23.696911,37.350285
7.798382,13.731409,17.696095,31.314634,43.649815,24.082735,24.013924,38.569443
7.854300,13.716881,17.810703,32.119366,44.596275,24.495121,24.150629,39.191479
7.922530,13.701441,17.944921,32.996590,45.556290,24.901451,24.310833,39.844177
8.072784,13.676681,18.218853,35.007420,47.590748,25.635506,24.601536,40.982914
8.121202,13.635780,18.357271,35.982281,48.661831,25.964485,24.792509,41.456528
8.165748,13.609415,18.562325,36.879196,49.784443,26.467789,25.007082,41.906178
8.264403,13.694226,19.168594,39.301300,52.474781,27.925228,25.610323,43.127380
8.293167,13.779602,19.464817,40.076546,53.370571,28.433933,25.812454,43.430668
8.437740,13.979801,20.222364,41.894215,55.362217,29.603285,26.078785,44.032711
8.670930,14.150603,21.038757,43.735256,57.340179,30.755348,26.401793,44.819828
8.792419,14.184795,21.493147,44.704052,58.417900,31.324959,26.608440,45.169922
9.030171,14.210114,22.388733,46.544476,60.452812,32.352543,27.069000,46.112526
9.480696,14.202244,23.371061,49.489098,63.723499,33.693531,27.947557,47.674965
9.625978,14.219819,23.567089,50.617661,64.838791,34.167271,28.194357,48.262821
9.888595,14.267064,23.946991,52.813999,66.911385,34.995899,28.564194,49.250473
10.143563,14.370454,24.228411,55.003189,69.079514,35.749146,28.893858,50.070904
10.293516,14.499419,24.352478,56.026264,70.050735,36.175243,29.028879,50.427010
10.558663,14.804847,24.580177,57.951038,72.013351,36.946251,29.364916,51.159870
10.818400,15.102211,24.427799,59.766212,74.063126,37.578018,29.837389,51.690819
10.966499,15.229424,24.345739,60.713917,75.181351,37.957714,30.055363,51.846851
11.176341,15.384592,24.207228,62.756725,77.081039,38.587040,30.366346,52.301762
11.268400,15.479297,24.183569,63.546055,77.720383,38.851280,30.427801,52.648197
11.382004,15.564610,24.161802,64.241714,78.309364,39.174583,30.449718,53.002613
11.650348,15.836341,24.578758,65.190125,79.111107,39.834240,30.555801,53.653614
11.904262,16.097988,25.289211,65.687042,79.305733,40.383488,30.741940,54.191025
12.033167,16.237488,25.535498,65.973457,79.367912,40.731026,30.816944,54.306255
12.222244,16.580662,25.703440,66.801170,79.085648,41.383247,30.831568,54.529587
12.264157,16.682905,25.701855,67.015312,78.939140,41.533836,30.904398,54.680737
12.454889,16.766432,25.607931,67.385063,78.630951,41.885403,31.171022,55.366890
12.852437,17.210238,25.620462,68.560341,78.792839,42.987690,31.411955,56.081776
12.983602,17.345774,25.756058,69.096886,79.059021,43.311062,31.469076,56.260262
13.228624,17.597343,26.002844,70.246712,79.593369,43.627567,31.556330,56.641895
13.339488,17.727757,26.240631,70.754662,79.882309,43.673935,31.556892,56.833313
13.531069,18.026943,26.642057,71.753311,80.412621,43.677406,31.615873,56.900982
13.729489,18.297670,26.969984,72.684868,81.158791,43.430862,31.591700,57.333549
14.126094,18.598536,27.354395,74.035355,82.105698,42.664593,31.345055,58.215851
14.366341,18.672995,27.467796,74.619766,82.384361,42.416451,31.308456,58.262161
14.566930,18.697771,27.648283,74.981781,82.626945,42.599346,31.423697,58.122158
14.696330,18.731426,27.704313,75.152199,82.721069,42.734245,31.475441,58.142162
14.980787,18.781921,28.089027,75.164680,82.932098,43.099785,31.617289,58.302254
15.311266,18.949360,28.653257,75.434258,83.048569,43.218246,31.630472,58.284813
15.567511,19.064922,29.017515,75.943794,83.158524,42.996632,31.552412,58.427292
15.830677,19.038254,29.004875,76.265045,83.101387,42.638332,31.489960,58.686890
15.970033,18.981216,28.853004,76.307220,82.609047,42.165577,31.532806,58.836433
15.993768,18.990746,28.728271,76.230232,81.363968,41.292049,31.632807,58.640884
15.918351,19.041111,28.470308,76.407089,80.627487,40.698738,31.720926,58.547901
15.868547,19.072702,28.340176,76.618835,80.347847,40.448898,31.686224,58.473133
15.684209,19.092323,28.452288,76.648285,79.758942,40.009750,31.618618,58.034996
15.573911,18.979685,28.646696,76.307175,79.046677,39.372692,31.549221,57.347488
15.528325,18.920349,28.806534,76.051208,78.644958,39.046783,31.511534,57.055824
15.422222,18.757280,29.536619,75.324295,77.750710,38.343960,31.470507,56.670128
15.285491,18.509781,30.333645,74.458641,76.908928,37.597382,31.539089,56.193447
15.221446,18.379305,30.621277,74.047386,76.520370,37.258831,31.533419,56.089161
14.876675,17.693468,31.718971,72.070755,74.388397,35.983765,31.045309,55.569954
14.783730,17.565472,32.098492,71.409615,73.715691,35.683964,30.898537,55.379791
14.540293,17.061047,33.082287,69.990448,71.626091,34.969009,30.661011,54.357716
14.343719,16.704079,33.280029,69.548866,70.294060,34.392426,30.423910,53.955570
14.269698,16.558504,33.514301,69.216484,69.687416,34.199600,30.309135,53.870071
14.079978,16.359367,34.002472,68.415718,68.288330,33.556732,30.128347,53.761368
13.914744,16.301502,34.399326,67.352592,67.150589,32.941647,30.002625,53.391872
13.836000,16.276894,34.600605,66.811417,66.587341,32.685364,29.847893,53.193653
13.724059,16.254251,34.808331,66.232704,65.900612,32.385109,29.621384,52.848148
13.276878,15.967212,35.480026,64.181999,63.713932,30.921188,29.024374,51.726772
12.996049,15.695164,35.592716,62.369228,61.809914,29.857798,28.842527,50.994801
12.725419,15.477248,35.489426,60.438320,59.798298,28.750544,28.746794,50.290768
12.579553,15.308599,35.240036,59.454086,58.759666,28.112041,28.789425,49.955048
12.299888,14.931641,34.870224,57.298058,56.521297,27.039530,28.787260,49.353542
12.008216,14.597628,34.628769,54.957565,54.100784,26.105970,28.790998,48.559494
11.873911,14.446199,34.508030,53.840668,52.949432,25.696108,28.789261,48.229149
11.717797,14.339446,34.396942,52.784111,51.747177,25.314905,28.759031,47.926525
11.131154,14.008555,34.216820,49.710526,48.138275,24.227814,28.375183,46.833046
10.957495,13.913417,34.261532,48.615673,46.859894,23.837240,28.228689,46.607300
10.798789,13.835196,34.292660,47.606224,45.547768,23.277008,27.969170,46.381725
10.438513,13.652976,34.345184,45.453777,42.847015,22.139883,27.473591,45.722015
10.209931,13.548517,34.297520,44.422604,41.464813,21.537586,27.209562,45.475124
9.976559,13.364375,34.103355,43.319942,40.062527,20.946419,26.910587,45.288193
9.484529,13.029808,33.555584,41.094601,37.296116,19.944473,26.293243,44.817963
9.262492,12.900353,33.282410,39.970772,35.937130,19.493877,26.016226,44.429150
8.858578,12.625132,32.902897,37.864052,33.362049,18.692059,25.501431,43.666096
8.667747,12.503388,32.727451,36.870399,32.158916,18.205284,25.224771,43.262650
8.339758,12.233633,32.523067,34.898746,29.974913,17.252254,24.686226,42.886932
8.022805,11.932611,32.097195,33.072830,28.131571,16.418417,24.160484,42.845684
7.734102,11.613572,31.733345,31.187313,26.438734,15.682466,23.611305,42.729446
7.610056,11.463943,31.607677,30.139723,25.544525,15.362762,23.325645,42.583439
7.366936,11.252018,31.384846,27.968229,23.484243,14.647212,22.848257,42.234539
7.128503,11.095338,31.015774,26.010338,21.548695,14.006439,22.503798,41.890553
6.997411,11.039614,30.780319,25.124952,20.588097,13.730124,22.338104,41.932369
6.805046,10.949128,30.138407,23.377058,18.769190,13.255036,22.076559,42.043812
6.644588,10.872814,29.224342,21.878176,17.136473,12.835268,21.743658,42.170998
6.573402,10.796931,28.861132,21.237286,16.331762,12.570487,21.557650,42.411205
6.424921,10.715501,28.206062,20.166817,14.803158,12.070357,21.156469,42.746471
6.347835,10.649686,27.896719,19.623735,14.082546,11.822232,20.995008,42.891785
6.306948,10.615818,27.653835,19.138739,13.505052,11.638388,20.877829,43.016411
6.269271,10.515182,27.259699,18.278004,12.587356,11.356146,20.698940,43.336136
6.196236,10.352190,27.174562,17.516245,11.908567,10.950286,20.361975,43.640751
6.169557,10.273949,27.062790,16.974598,11.544749,10.720336,20.183399,43.815327
6.101010,10.100934,26.809368,15.936586,11.096909,10.368580,19.898746,43.928814
6.075161,10.007981,26.449499,15.467528,10.858080,10.168438,19.804918,43.876659
6.045608,9.897779,26.070671,14.942529,10.638347,9.984299,19.749023,43.801907
6.010306,9.600655,25.464954,14.022504,10.148676,9.642206,19.606266,43.962872
6.024537,9.259460,25.307089,13.259484,9.651959,9.308283,19.549503,44.141445
6.126694,8.885876,25.227261,12.390206,9.642032,8.936229,19.514141,44.485252
6.156715,8.793265,25.146658,12.210540,9.811573,8.873353,19.392097,44.711727
6.156365,8.691488,25.072502,12.057789,10.022027,8.821939,19.238548,44.934181
6.213696,8.582447,24.941500,11.969975,10.972715,8.839281,18.975773,45.535923
6.443238,8.524269,25.157103,12.306159,12.470895,8.938534,18.591656,46.477375
6.542423,8.541947,25.380947,12.575105,13.246737,8.981776,18.431068,46.916924
6.925005,8.561380,25.664488,13.150811,15.055258,9.058889,18.130083,47.943859
7.365993,8.526485,25.957918,13.636497,17.088696,9.149724,17.960930,48.688866
7.574942,8.465967,26.183132,13.931906,18.145514,9.193676,17.920475,49.031952
8.263532,8.297061,26.589895,14.806171,22.004074,9.698586,17.764429,50.567066
8.404558,8.262360,26.562494,14.978004,23.070513,9.847208,17.734661,50.826782
8.531387,8.255861,26.535841,15.128851,24.051683,9.998825,17.733505,51.074696
8.721421,8.280341,26.528730,15.267637,24.946608,10.160241,17.830555,51.358479
9.186997,8.474048,26.617689,15.576074,26.603516,10.489110,18.058006,51.821613
9.763003,8.718329,26.858719,16.009432,28.085993,10.832523,18.563744,52.651783
10.302599,8.991240,27.225842,16.366756,29.340879,11.089240,19.033667,53.464935
10.528477,9.111556,27.363552,16.524286,29.980757,11.206654,19.259491,53.839302
10.902260,9.324178,27.428654,16.806799,31.222858,11.423156,19.754917,54.446339
11.401657,9.644915,27.653769,17.128860,33.172840,11.830652,20.393137,54.639759
11.735259,9.883531,28.144438,17.252161,34.167698,12.069637,20.640493,54.684937
12.052677,10.097682,28.430241,17.309114,35.075977,12.311650,20.817423,55.017166
12.214958,10.166780,28.497351,17.342728,35.511780,12.428047,20.822626,55.374161
12.516788,10.298931,28.642752,17.438517,36.281635,12.743258,20.852446,56.390934
12.775782,10.432938,28.775179,17.553101,37.421127,13.087400,20.844406,57.108196
12.888202,10.505154,28.835388,17.620895,37.983875,13.242240,20.839636,57.449173
13.060873,10.619179,28.820366,17.679064,38.886551,13.516151,20.828629,57.946049
13.200558,10.647574,28.796148,17.865353,40.028595,13.822977,20.799740,57.970181
13.350855,10.808737,28.682632,18.062445,41.460079,14.252113,20.876396,57.796883
13.358970,10.809526,27.730625,18.025898,42.530724,14.671506,20.772120,57.385731
13.348026,10.829233,27.343817,17.974955,42.834415,14.775208,20.746178,57.265537
13.374791,10.892763,26.736816,17.820597,43.404186,14.981009,20.698326,57.392250
13.472029,11.104608,26.286993,17.589027,43.976913,15.088632,20.569016,57.857265
13.542902,11.205502,26.088682,17.484426,44.229404,15.141376,20.505789,58.141571
13.660342,11.464266,25.910614,17.385757,44.690731,15.177793,20.335690,58.398403
13.746274,11.690917,25.605246,17.542637,45.294842,15.223187,20.157925,58.515785
13.796009,11.807611,25.402283,17.621513,45.670536,15.265148,20.089018,58.713352
13.812323,12.128393,24.712580,17.458639,45.696457,15.130041,19.623739,58.727749
13.808624,12.212313,24.652950,17.370386,45.422710,15.056876,19.528831,58.580345
13.651357,12.336430,24.445698,16.987837,44.456928,14.758758,19.363535,57.870747
13.459491,12.553950,23.843328,16.378981,43.113770,14.524867,19.075365,57.153870
13.357509,12.740001,23.579264,16.021656,42.363968,14.423964,18.969330,56.931786
13.177868,12.940325,23.328156,15.695838,41.511539,14.330608,18.850922,56.886284
12.851078,13.302267,22.946819,15.139702,39.620605,14.155243,18.598064,56.693008
12.711009,13.461834,22.738806,14.831692,38.626614,14.093441,18.465816,56.557487
12.462728,13.741420,22.554041,14.287585,36.963997,13.867911,18.191124,56.307796
12.121752,14.105022,22.427866,13.686595,34.295582,13.475944,17.886488,55.985332
12.015277,14.253093,22.461971,13.561807,33.413830,13.343320,17.780838,55.972748
11.667318,14.467788,22.494328,13.341363,31.844698,13.042005,17.385376,55.772068
11.469077,14.534402,22.391993,13.198143,31.135241,12.912566,17.201717,55.581848
11.007154,14.602059,22.208916,12.821541,29.854252,12.620459,16.523321,55.117847
10.622901,14.608682,21.824694,12.640949,28.772278,12.377254,15.856291,54.989235
10.465425,14.615392,21.679461,12.604326,28.270897,12.250566,15.593042,54.956326
10.191287,14.648273,21.459452,12.649896,27.273451,12.000539,15.095945,54.776955
10.053193,14.641098,21.279747,12.652000,26.681789,11.822592,14.822850,54.618073
9.730455,14.614619,20.533621,12.597652,25.164158,11.477436,14.175405,54.590866
9.516937,14.528343,19.968523,12.552379,24.566875,11.399915,13.821888,54.699215
9.413138,14.475127,19.718637,12.550058,24.219948,11.352112,13.661362,54.614567
9.173654,14.416838,19.277205,12.546967,23.649593,11.210053,13.366194,54.015488
9.068490,14.397763,19.151569,12.518823,23.418507,11.074575,13.276283,53.561508
8.974606,14.387293,19.033112,12.492929,23.011951,10.932368,13.208447,53.145863
8.777877,14.327377,18.933945,12.458411,22.104568,10.643866,12.994151,52.212654
8.595424,14.288136,19.052164,12.409216,21.320333,10.489985,12.785100,51.626957
8.518834,14.328382,19.064268,12.296497,20.796671,10.405193,12.691388,51.420307
8.448160,14.371805,19.086889,12.157162,20.314880,10.344269,12.625167,51.197586
8.315226,14.407393,19.130829,11.834538,19.530472,10.280681,12.435307,50.851757
8.261468,14.451309,19.116192,11.671536,19.092543,10.210837,12.369904,50.784435
8.198500,14.586262,19.244596,11.376107,18.301548,10.025007,12.330667,50.815685
8.133729,14.700175,19.353106,11.114464,17.535069,9.858805,12.335894,50.969131
8.089237,14.744677,19.423857,10.986284,17.148962,9.765828,12.351273,50.940174
7.934707,14.734328,19.630882,10.797949,16.270042,9.572611,12.316878,50.537777
7.831215,14.695638,19.886353,10.713108,15.853592,9.487428,12.280716,50.392479
7.612978,14.618427,20.458462,10.571801,15.122988,9.379605,12.172236,50.141148
7.420404,14.631008,20.559076,10.230227,14.527939,9.423098,12.044235,50.102058
7.220312,14.747255,20.542418,9.856704,13.641736,9.393971,11.890131,49.908081
7.034800,14.886050,20.531092,9.546287,12.775851,9.362474,11.727829,49.458923
6.878824,15.013657,20.627880,9.285669,12.042894,9.330544,11.592922,49.196507
6.764756,15.210703,20.578613,8.968795,11.375717,9.296745,11.524519,49.231277
6.707095,15.276208,20.556892,8.863368,11.111096,9.294593,11.489784,49.318943
6.610236,15.232714,20.512014,8.583904,10.627782,9.228697,11.454009,49.664452
6.440597,15.009575,20.443506,8.329403,10.204078,9.151648,11.432712,49.679737
6.342718,14.901760,20.359756,8.188285,10.017282,9.103374,11.427647,49.649689
6.153149,14.787669,20.138912,7.919147,9.687301,9.003819,11.391265,49.548748
5.956280,14.711102,19.746464,7.709557,9.287314,8.940850,11.366195,49.089893
5.875397,14.686934,19.552616,7.628257,9.099661,8.903522,11.359273,48.851643
5.715014,14.637966,19.256056,7.479854,8.768164,8.837727,11.367156,48.328484
5.598469,14.483541,19.217205,7.317486,8.487557,8.834688,11.349730,48.055851
5.603478,14.488385,19.197268,7.271460,8.363848,8.839988,11.415981,48.036011
5.603139,14.497855,19.110144,7.172267,8.065093,8.822082,11.553413,47.951706
5.568771,14.639178,19.005142,7.015580,7.807268,8.820074,11.642688,47.500004
5.525458,14.725694,19.007980,6.921524,7.719484,8.848018,11.693934,47.206112
5.474713,14.802792,18.975447,6.791995,7.576458,8.864215,11.683602,46.906204
5.392196,14.882641,18.933220,6.542949,7.323797,8.891912,11.728132,46.628197
5.275037,15.069496,18.890429,6.262362,7.044448,8.891081,11.810410,46.805424
