4.577929,11.416031,7.118443,5.073487,1.887782,2.996931,12.001380,39.869492
4.562943,11.433908,7.203448,5.036784,1.892552,2.993853,11.934916,39.923073
4.556712,11.427213,7.287857,5.006434,1.896941,2.991022,11.876007,40.065399
4.550979,11.435571,7.347760,5.022216,1.923873,2.987722,11.830806,40.196609
4.491590,11.468380,7.938890,5.099979,2.029476,2.990121,11.612481,40.571404
4.466423,11.413113,8.142556,5.123721,2.081290,3.015525,11.523188,40.718979
4.444409,11.411127,8.352965,5.151536,2.128961,3.030613,11.462160,40.912636
4.370737,11.447438,8.875008,5.207672,2.250299,3.068307,11.309252,41.651974
4.372082,11.534322,9.011133,5.242421,2.284457,3.080422,11.311683,41.965233
4.381302,11.714815,9.122365,5.258755,2.315884,3.091568,11.318439,42.287140
4.381663,12.042551,9.431927,5.242221,2.371400,3.103158,11.261483,42.719982
4.348548,12.326376,9.748675,5.223487,2.418393,3.130720,11.204505,42.960110
4.308395,12.564082,10.264117,5.247627,2.500940,3.195843,11.033350,43.214489
4.280858,12.613009,10.401670,5.259416,2.524152,3.202442,10.992482,43.226139
4.234433,12.781533,10.887733,5.308853,2.565158,3.189629,10.904851,43.106667
4.202499,12.996736,11.607040,5.424526,2.599868,3.186663,10.807714,42.906372
4.190911,13.189958,12.282141,5.543068,2.629250,3.185283,10.763749,43.141315
4.169248,13.346273,12.906046,5.657604,2.648882,3.178564,10.830799,43.348618
4.161692,13.440475,13.670628,5.737301,2.720985,3.196615,10.903951,43.513828
4.170298,13.450619,13.837882,5.755952,2.745089,3.205055,10.900325,43.577778
4.164727,13.460029,13.984185,5.773111,2.767265,3.201588,10.850569,43.655228
4.105940,13.413455,14.564649,5.792867,2.557755,3.173005,10.587336,43.585182
4.060809,13.415590,14.746600,5.789968,2.450004,3.172255,10.490717,43.340286
3.910958,13.371095,15.312572,5.779440,2.228798,3.183737,10.334240,42.942108
3.875405,13.336988,15.509846,5.763278,2.180326,3.192321,10.321139,42.827549
3.861190,13.324220,15.691347,5.735015,2.135729,3.195346,10.319581,42.824703
3.905987,13.725224,16.199594,5.650719,2.022215,3.211965,10.342169,42.942226
3.924132,13.856673,16.354692,5.608435,1.990259,3.230589,10.415946,42.958939
3.940827,13.912070,16.501108,5.560958,1.960859,3.249633,10.465996,42.989830
3.878391,14.006290,16.973818,5.425920,1.886026,3.212221,10.496344,43.159225
3.848907,14.036711,17.127892,5.296107,1.845578,3.187972,10.541956,43.464455
3.810637,14.115968,16.972811,5.154373,1.796245,3.193602,10.568047,43.825642
3.794812,14.158274,16.912060,5.111431,1.782357,3.192174,10.522243,43.913960
3.780254,14.237709,16.868084,5.050351,1.769580,3.185321,10.494802,43.995838
3.787178,14.252404,16.788027,4.931751,1.747009,3.149812,10.483179,44.173840
3.787865,14.256755,16.676971,4.879465,1.737058,3.127658,10.474139,44.198631
3.779426,14.369694,16.468884,4.738823,1.769022,3.148892,10.491873,44.200047
3.862673,14.468758,16.129524,4.503388,2.029582,3.315060,10.587143,44.766212
3.926299,14.521330,15.917209,4.439227,2.127775,3.391963,10.650681,45.060688
4.102708,14.601748,15.289149,4.248647,2.319695,3.541524,10.792373,46.155525
4.200027,14.606028,14.902943,4.131797,2.419611,3.639863,10.857717,46.693932
4.229621,14.579802,14.751400,4.073182,2.475662,3.687145,10.885478,46.830479
4.275313,14.225712,14.318568,3.944212,2.655238,3.809910,10.976528,47.379776
4.312998,14.090564,14.157943,3.926955,2.729359,3.845822,11.020205,47.752872
4.357606,13.951538,13.979176,3.915651,2.951705,3.922014,11.089669,48.060993
4.439279,13.612465,13.433907,3.945285,3.956421,4.171012,11.234934,49.131432
4.454293,13.519902,13.202494,3.964706,4.419675,4.331335,11.281656,49.572933
4.479689,13.434740,12.992487,4.065990,5.041118,4.497577,11.352892,50.085110
4.579883,13.137583,11.847749,4.918943,8.307583,5.192667,11.790736,52.075306
4.585703,13.062130,11.488145,5.066119,9.056486,5.330130,11.960224,52.336178
4.602242,12.942437,10.807450,5.325485,10.523053,5.610384,12.275020,52.477432
4.666012,12.901184,10.449004,5.468832,11.298080,5.806458,12.429553,52.668907
4.719630,12.863229,10.119219,5.615728,12.011141,5.973290,12.565545,52.808231
4.874972,12.813732,9.158004,6.235339,14.114376,6.522704,12.910796,53.445480
4.936970,12.822018,8.880968,6.471719,14.831108,6.735275,13.088097,53.573101
5.053664,12.900658,8.375293,6.988473,16.097231,7.129942,13.410007,53.708843
5.194707,12.974655,7.931346,7.472089,17.248247,7.485912,13.850921,53.850433
5.501212,13.198822,7.318287,8.559268,19.415289,8.133278,14.553211,54.705551
5.849349,13.587270,6.728094,9.826079,21.951141,8.752070,15.176663,55.307312
5.942695,13.684903,6.548818,10.199198,22.732140,8.970828,15.370828,55.409863
6.005626,13.657966,6.415236,10.542483,23.450689,9.186283,15.554149,55.552639
6.090889,13.606610,6.158475,11.148404,24.727230,9.560025,15.850371,55.804142
6.160311,13.610639,6.052843,11.427757,25.349997,9.713541,15.914759,55.968498
6.274148,13.607596,5.961833,11.676182,25.922970,9.907275,16.104200,56.267529
6.610346,13.608640,5.653214,12.568888,27.478817,10.658960,16.945557,57.046074
6.725758,13.591300,5.561556,12.862798,27.932327,10.887947,17.203997,57.211445
7.178732,13.673645,5.473489,14.160025,30.206713,11.586603,18.400841,58.039818
7.498487,13.732739,5.459530,14.912465,32.272266,11.969187,19.391928,58.784878
7.646821,13.728971,5.517089,15.271727,33.364498,12.163828,19.850002,59.168056
7.802408,13.813562,5.606562,15.655432,34.528072,12.352531,20.258043,59.580387
7.945979,13.877736,5.689189,16.147425,35.598621,12.531507,20.644403,60.066860
8.234595,13.928184,5.835151,17.220339,37.797749,12.868768,21.455427,61.083908
8.610445,13.974632,6.013176,19.089113,40.989372,13.201676,22.777576,62.222099
8.697414,13.987708,6.072836,19.787638,41.964787,13.298879,23.224506,62.555115
8.769941,13.975052,6.127727,20.426828,42.862209,13.379931,23.816545,62.760414
9.223314,14.133370,6.654676,23.069899,46.490318,13.879883,26.025082,63.118675
9.424204,14.223595,6.737112,23.631891,47.342789,14.042631,26.523018,63.295475
10.124316,14.393127,6.999935,25.189663,49.837154,14.565700,27.910902,64.125755
10.332595,14.447676,7.063874,25.668289,50.612892,14.739116,28.328480,64.331963
10.500871,14.524220,7.178988,26.108646,51.326603,14.951904,28.711395,64.453926
11.061391,14.812611,7.560614,27.286644,52.953808,15.473169,29.776955,64.764488
11.248028,14.931421,7.701055,27.637907,53.358509,15.611043,30.199919,64.711136
11.618390,15.289562,7.979870,28.211252,53.951145,15.833125,31.195093,64.615929
12.316898,15.754826,8.532653,28.987099,54.230869,16.080536,32.843109,64.468987
12.615952,15.874299,8.748405,29.345463,54.386719,16.153019,33.389561,64.483192
13.008813,16.027670,8.966057,29.675177,54.636776,16.248659,33.928196,64.594154
14.140525,16.579861,9.672472,30.689280,54.937859,16.483444,35.446270,65.108452
14.544744,16.837055,9.955894,31.095325,54.940586,16.569319,36.034584,65.347504
14.910597,17.065563,10.215816,31.660957,55.052654,16.667526,36.571274,65.572449
16.103945,17.802547,11.132311,32.806705,55.471592,16.895025,37.721325,66.154770
16.497639,18.054323,11.460243,33.135620,55.676285,17.022299,38.089977,66.385185
16.899155,18.279295,11.778536,33.429153,55.864609,17.131201,38.537724,66.666328
18.009558,18.966038,12.527046,34.157780,56.388126,17.375443,39.637016,67.653214
18.292805,19.142233,12.772086,34.239017,56.297493,17.377769,39.969444,67.859688
19.512432,20.115746,13.607029,35.268299,56.458939,17.880451,41.062565,68.820312
19.768570,20.291281,13.887115,35.445942,56.511768,17.979197,41.453457,69.050011
20.048779,20.517750,14.195663,35.627243,56.588093,18.055857,41.872467,69.208282
20.316252,20.743038,14.479540,35.821850,56.665131,18.131079,42.343204,69.333244
20.750492,21.016842,14.958969,36.309372,56.920017,18.271271,43.402023,69.614182
20.873627,21.156862,15.274858,36.605114,57.073811,18.284622,43.761723,69.647339
21.160267,21.594105,16.288837,37.273418,57.675507,18.158966,44.731030,69.739769
21.234663,21.707602,16.612036,37.542248,57.977070,18.127222,45.059814,69.932182
21.276468,21.781424,16.894432,37.646801,58.107185,18.099461,45.313793,70.073502
21.301104,21.972713,17.681818,38.072056,57.855515,17.856930,45.503448,70.173241
21.294233,22.011612,17.878096,38.239761,57.492897,17.804356,45.470680,70.000961
21.215189,21.942045,18.221279,38.361271,56.037601,17.615150,45.371906,69.578148
21.205183,21.963398,18.433847,38.383129,55.450050,17.586216,45.326584,69.458679
21.196457,22.041725,19.176716,38.264572,54.365307,17.595236,45.167210,69.168594
21.110476,22.187067,20.257223,38.192719,52.515251,17.487682,44.829029,68.523262
21.070570,22.273664,20.602640,38.366989,52.006897,17.472822,44.543930,68.381500
21.020447,22.371618,20.978262,38.454475,51.499500,17.472769,44.258900,68.338692
20.857557,22.502285,21.669191,38.552444,50.364853,17.371473,43.725502,68.251442
20.366673,22.711664,22.733633,38.805534,48.600937,17.046638,43.079967,68.152252
20.151142,22.821806,23.313341,38.965630,47.999023,16.907831,42.801830,68.145988
19.779419,23.012133,24.457483,39.113926,46.716938,16.640390,42.470169,67.929688
19.624262,23.056583,24.999149,39.203846,46.140244,16.481297,42.425758,67.753952
19.449917,23.098253,25.486845,39.346886,45.609653,16.316973,42.370178,67.658463
19.112717,23.086557,26.498901,39.723412,44.502640,15.921853,42.160149,67.663040
18.941137,23.064806,27.097101,39.879646,43.969288,15.753843,41.979076,67.696083
18.636784,22.863018,28.243441,40.192272,42.859497,15.424553,41.465820,67.671921
18.481506,22.788372,28.695009,40.249924,42.321400,15.269764,41.101475,67.628151
17.478331,22.399958,29.902020,39.632740,39.375992,14.657557,39.677052,67.727722
17.117546,22.279156,30.062357,39.441471,38.645645,14.535167,39.418182,67.865807
16.437801,21.972950,30.319094,39.015522,37.432747,14.232145,38.761047,67.729439
15.698910,21.505945,30.445183,38.445770,36.290874,13.894371,37.940941,67.444740
15.327287,21.244476,30.470417,38.136154,35.664841,13.729701,37.581223,67.272179
14.976155,21.003912,30.503475,37.850605,34.909424,13.504032,37.266651,67.053986
13.721889,20.139730,30.511038,36.833977,32.787518,12.767106,36.228493,66.335457
13.297756,19.894247,30.554037,36.542465,32.073936,12.562134,35.843666,65.957336
12.907973,19.644741,30.593603,36.261806,31.417406,12.375318,35.470501,65.532600
11.841321,18.878080,30.599983,35.245625,29.540083,11.905723,34.421299,64.303123
11.134437,18.197268,30.557648,34.220322,27.826040,11.369754,33.775845,63.692894
10.206359,17.237020,30.500204,32.970215,25.854324,10.719286,32.531261,63.267765
9.638462,16.692823,30.423635,32.340382,25.265715,10.528547,31.526209,63.271564
9.391398,16.468552,30.461880,32.023125,24.936157,10.441588,31.080297,63.229618
9.163625,16.220139,30.383451,31.684782,24.632948,10.361584,30.693727,63.120266
8.737956,15.775458,30.154484,31.206972,24.035202,10.205206,29.759241,62.904343
8.540609,15.568357,30.048424,30.917086,23.553509,10.154297,29.309017,62.767223
8.238029,15.214280,29.904810,30.560127,22.842014,10.144050,28.394417,62.453335
7.872143,14.676635,29.796452,29.833929,21.564383,10.235488,27.396452,61.711060
7.693185,14.421204,29.801559,29.529253,21.213961,10.417456,26.964087,61.605152
7.555329,14.177927,29.836626,29.354937,21.341633,10.760675,26.733149,61.305882
7.461526,13.841735,29.674219,29.231043,21.705402,10.984230,26.577297,60.939388
7.415830,13.342612,29.121080,28.791245,22.295288,11.437737,26.401674,60.260918
7.434880,13.223533,28.955256,28.519785,22.451838,11.598653,26.280365,60.175499
7.456815,13.104080,28.882860,28.096670,22.540596,11.735114,26.199594,60.103195
7.512001,12.676270,28.314978,26.867821,22.873632,12.244952,25.990700,59.698391
7.564183,12.531711,28.176617,26.490398,23.075886,12.469380,25.977293,59.412724
7.746657,11.869779,26.924023,24.667366,23.924707,13.404378,25.536026,57.420807
7.758345,11.754725,26.839827,24.502640,24.230618,13.562127,25.332548,57.035618
7.766180,11.648100,26.759678,24.277279,24.573366,13.791245,25.145874,56.592304
7.755155,11.569777,26.608919,24.000460,24.818117,13.997221,24.987175,56.033646
7.774844,11.400831,26.098606,23.401468,25.046459,14.366444,24.749533,55.095116
7.779045,11.341355,25.742533,23.102953,25.137737,14.495028,24.700089,54.554127
7.963635,11.210950,24.880999,22.212351,25.477226,14.855097,24.635031,53.355789
8.053817,11.207843,24.649435,21.950418,25.561584,14.949006,24.567646,52.808277
8.146349,11.247996,24.521158,21.709431,25.639196,15.057407,24.551424,52.286999
8.491257,11.291536,24.294525,20.880444,25.825405,15.301766,23.968142,50.863346
8.554085,11.293001,24.285057,20.611712,25.833977,15.334883,23.874271,50.650791
8.748970,11.452526,24.308558,19.825798,25.974545,15.429993,23.690809,50.566498
8.840211,11.520214,24.245268,19.598639,26.033037,15.471438,23.642742,50.588497
8.924801,11.560654,24.277676,19.389641,26.086855,15.502348,23.595329,50.607147
9.129491,11.587347,24.425226,18.842396,26.338144,15.575585,23.377048,50.454773
9.202830,11.596313,24.471466,18.652803,26.408400,15.574120,23.318382,50.368450
9.270092,11.592354,24.504234,18.468283,26.473036,15.576102,23.233696,50.405556
9.411550,11.729907,24.518759,17.946663,26.615023,15.531523,23.219887,50.019909
9.451778,11.906539,24.263117,17.752916,26.618771,15.467789,23.268124,49.534458
9.506253,12.001369,23.891924,17.371845,25.756577,15.187040,23.248682,48.250866
9.538614,12.006687,23.733332,17.206156,25.416374,15.101360,23.171618,48.031757
9.576387,12.011580,23.587421,17.069736,25.103374,15.028869,23.112024,47.955807
9.803461,12.030182,23.242058,16.528008,24.306686,14.805186,23.059933,47.927189
9.851444,12.008314,23.108374,16.214806,23.971300,14.670436,23.031569,47.680058
9.914607,11.988194,22.952677,15.926646,23.699467,14.534092,22.993166,47.487198
10.008615,11.949266,22.412136,15.098577,22.866495,14.097549,22.783995,47.109459
10.033848,11.906803,22.234188,14.808331,22.517275,13.951177,22.735109,46.922054
10.078532,11.793264,21.430197,13.723185,20.277557,12.876153,22.434616,46.913036
10.063616,11.752757,21.223009,13.343521,19.673565,12.628454,22.348890,46.918407
10.045022,11.744590,21.056105,12.948773,18.944357,12.356969,22.218679,46.926010
9.933310,11.922389,20.557779,11.886497,17.014042,11.513244,21.985626,46.793270
9.885592,11.969858,20.328571,11.587904,16.470644,11.283078,21.935703,46.532211
9.848199,12.024090,20.117500,11.316570,15.970692,11.044230,21.881386,46.149391
9.778802,12.146182,19.744734,10.837254,14.877382,10.477321,21.717331,45.556782
9.730025,12.182616,19.566458,10.692415,14.320364,10.171734,21.634624,45.456680
9.667740,12.170377,19.326412,10.617115,13.807880,9.882925,21.591791,45.439980
9.543598,11.994814,18.452255,10.545990,12.080478,8.869454,21.710443,46.033379
9.526383,11.937718,17.972477,10.400103,11.559390,8.665108,21.764597,46.312309
9.516059,11.902839,17.126490,10.142630,10.523895,8.185335,21.823759,46.936256
9.522471,11.901969,16.753836,10.069854,10.068679,8.011270,21.868759,47.316280
9.499148,11.940837,16.419487,10.016574,9.649859,7.827979,21.841476,47.665173
9.352051,12.017335,15.568466,9.881554,8.628218,7.304815,21.667114,49.158249
9.235676,11.984073,15.301610,9.887096,8.550924,7.161785,21.654882,49.567226
9.121242,11.929733,15.056089,9.947738,8.479812,7.050426,21.644983,49.952942
8.893192,11.715901,14.498899,10.276662,8.353660,6.809955,21.606123,50.550163
8.666984,11.527393,14.017751,11.125764,8.246388,6.643089,21.599674,50.912846
8.377312,11.290301,13.326220,12.406114,8.279179,6.630721,21.770281,51.062317
8.164510,11.049629,12.821991,13.107822,8.349644,6.676804,21.876245,51.263775
8.073336,10.948329,12.612618,13.448615,8.380709,6.685507,21.934753,51.411819
8.002477,10.880168,12.329346,13.967558,8.630394,6.693514,21.993862,51.545586
7.950519,10.828377,12.025428,14.638052,8.817697,6.685206,22.089598,51.736877
7.911724,10.775909,11.745808,15.254934,9.199043,6.690318,22.332476,52.028358
7.833583,10.869652,10.935318,17.261322,10.437223,6.775469,23.600883,52.974655
7.793576,10.892898,10.566368,18.654043,11.608475,6.879636,24.365208,53.781467
7.815333,10.846009,10.175890,20.944910,13.416972,7.060980,25.438002,54.714218
7.854526,10.898417,10.120665,21.697008,14.013584,7.128960,25.736624,55.100548
7.899082,10.945474,10.015892,22.397318,14.567091,7.191506,26.039019,55.471298
7.996718,11.029806,9.861218,24.181070,16.378807,7.554525,27.113850,56.503670
8.006307,11.051853,9.831268,24.715677,16.990891,7.737229,27.526423,56.675495
7.990617,11.075786,9.811405,25.201315,17.739609,7.906880,27.919098,56.838512
8.013573,11.318596,9.900193,26.306929,19.299856,8.207284,28.559992,57.565628
7.996041,11.883072,10.141641,27.918530,21.122169,8.588962,29.577869,58.861076
7.993061,12.099666,10.251973,28.532290,21.635168,8.690413,29.920998,59.285431
7.988769,12.506344,10.450991,29.752146,22.851068,8.969296,30.655651,59.849312
8.148165,13.190185,10.684598,31.597435,24.740807,9.405804,31.601971,60.633163
8.541305,13.872258,10.921782,33.866287,26.654562,10.012035,32.408619,61.734344
8.680509,14.073439,10.992435,34.613235,27.456085,10.267213,32.665592,62.074291
9.166383,14.533598,11.077636,36.254707,28.871994,10.705044,33.135399,62.965302
10.088375,15.237464,11.215102,37.625870,30.225351,11.151200,33.575371,63.998219
10.943330,15.858972,11.337096,38.790676,31.633171,11.588080,34.121441,65.016510
11.383626,16.134115,11.364161,39.285213,32.267632,11.781125,34.414833,65.484131
12.695615,16.979933,11.437415,40.402706,34.746964,12.412136,35.410072,66.673424
13.516577,17.575657,11.514718,40.959641,36.295536,12.887415,36.095860,67.183563
13.883821,17.822964,11.563677,41.237438,37.068367,13.089152,36.451046,67.557922
14.541681,18.273710,11.649853,41.719368,38.451992,13.422432,37.110302,67.967682
14.885434,18.494535,11.669134,41.887863,39.168701,13.631057,37.468315,68.224648
16.172523,19.214668,11.759195,42.815254,41.549385,14.441579,38.479698,68.344742
16.635197,19.462315,11.799576,43.288208,42.319176,14.714675,38.746582,68.273712
17.066633,19.787636,11.873990,43.695297,43.027412,14.992340,39.029709,68.313293
18.220608,20.986925,12.127033,44.679539,45.331440,15.914911,39.692307,68.837532
18.578087,21.362474,12.175136,44.772346,46.095135,16.224033,39.861496,69.095276
18.916832,21.719988,12.251307,44.890488,46.745659,16.467859,39.954308,69.426628
19.913525,22.813469,12.440258,45.729259,48.798008,17.072224,40.223602,69.827988
20.285126,23.206768,12.502220,46.075226,49.369728,17.299370,40.342117,69.862267
20.953611,23.873489,12.632288,46.546940,50.524151,17.798676,40.837982,70.248108
21.233095,24.148256,12.735723,46.563438,50.998287,18.058706,41.056366,70.551201
21.502842,24.401054,12.830889,46.640656,51.252220,18.328760,41.134319,70.757561
22.197556,24.931648,13.235765,46.712902,51.708542,18.991480,40.663734,71.698837
22.441864,25.047211,13.357225,46.672794,51.646103,19.177151,40.476952,71.977753
22.896578,25.286938,13.533200,46.652676,51.637558,19.590733,40.128674,72.507790
23.510149,25.455345,13.596263,46.388481,51.749771,20.213747,39.662186,73.147728
23.942091,25.595343,13.586489,46.512695,52.020115,20.549603,39.358509,73.727798
24.360641,25.799110,13.464403,46.632912,52.335514,20.693289,38.873974,73.916405
24.962168,26.039646,13.434098,46.859680,52.540939,20.700695,38.208088,73.883728
25.858456,26.147419,13.351048,46.965919,52.357342,20.747616,37.924393,73.643127
26.848619,26.121420,13.294110,46.954510,52.405418,20.828903,37.872272,73.120621
27.284311,26.096548,13.398846,46.940056,52.507217,20.880745,37.750191,72.781013
27.716955,26.057413,13.499246,46.790627,52.600887,20.928440,37.739094,72.515137
28.466358,26.025164,13.713499,46.661171,52.676090,20.922220,37.602585,72.276733
29.238661,26.041073,14.112456,46.142174,52.492561,20.878414,37.154705,72.025124
29.478683,26.015409,14.264743,45.409496,52.190525,20.762060,36.896103,71.840820
29.572632,25.950432,14.467715,45.001778,51.907608,20.655035,36.827251,71.777725
29.764420,25.755838,14.913167,44.221451,51.188457,20.359991,36.592594,71.815399
29.545433,25.277836,15.584204,43.480877,50.682343,20.121878,36.517521,71.616089
29.117168,24.734367,16.621916,43.285358,49.955395,19.867832,36.431999,71.168564
28.892744,24.506495,17.097795,43.215710,49.605019,19.766321,36.325970,70.979195
28.399273,24.114655,18.155458,43.068428,48.769306,19.591776,35.900715,70.557526
27.868093,23.799105,19.039576,43.044880,47.613106,19.397047,35.335686,70.087921
26.907026,23.058294,20.691460,43.361900,45.841061,19.060373,34.363514,68.905235
26.669052,22.869894,21.041203,43.521984,45.430851,18.974443,34.128674,68.603134
26.410843,22.624960,21.361929,43.677834,44.958042,18.832359,33.871243,68.237671
25.691246,22.054329,21.910509,43.809029,43.785854,18.426476,33.297688,67.708031
25.364115,21.785254,22.192980,43.648968,43.084995,18.168564,33.009857,67.507629
24.581038,21.162251,22.681408,43.180965,41.524998,17.689138,32.591156,67.134857
23.592468,20.141817,23.115755,42.074757,39.173656,16.875278,32.363098,66.983055
23.021774,19.688124,23.230118,41.210129,37.955914,16.415300,32.253380,66.954597
22.744120,19.500267,23.266264,40.692841,37.398491,16.222734,32.290730,66.892181
22.177238,19.135946,23.403688,39.456623,36.080570,15.709502,32.257847,66.986282
21.562620,18.695120,23.494427,38.308460,34.917030,15.184231,32.079231,66.806198
20.751009,18.099300,23.776661,36.605873,33.061512,14.339899,31.674902,65.893204
20.583319,17.935192,23.955872,36.012470,32.478680,14.083410,31.644047,65.602493
20.455570,17.771364,24.108427,35.412891,31.942450,13.832494,31.567719,65.356422
20.231113,17.445766,24.347893,34.328190,30.924629,13.323654,31.437395,64.908691
20.038446,17.122488,24.557190,33.120213,29.771427,12.811056,31.332161,64.542526
19.964073,16.974642,24.640268,32.510872,29.328913,12.557606,31.228403,64.408257
19.524315,16.597895,24.913933,30.695318,27.515844,11.849822,30.933846,63.840092
19.261511,16.209110,25.142853,29.594770,26.224976,11.439126,30.734657,63.881943
18.971975,15.793938,25.471527,28.609226,24.719906,11.098273,30.568439,64.003548
18.712557,15.518229,25.682434,28.066820,23.972601,10.931690,30.555296,64.135292
17.918541,14.974383,25.908861,27.009254,23.168409,10.768159,30.251152,64.508057
16.707432,14.211087,25.993034,25.598766,22.303131,10.683504,29.565136,65.124931
16.340645,13.958158,25.924664,25.183004,22.031427,10.677417,29.255844,65.246880
16.044865,13.709017,25.864702,24.671978,21.668636,10.671816,29.008862,65.267212
15.452652,12.893554,25.896772,23.416044,20.712742,10.622461,28.574648,65.262512
15.329268,12.680896,25.866091,23.089668,20.676657,10.711229,28.403353,65.177917
14.957737,12.037983,25.683237,21.904686,20.950008,10.899451,27.814077,65.421288
14.809769,11.937837,25.539536,21.645008,21.120453,10.926518,27.641260,65.379700
14.672983,11.821379,25.347977,21.411436,21.258406,10.952090,27.473730,65.270950
14.303341,11.509365,23.978582,20.400732,21.500229,10.823543,26.846216,65.222862
14.196662,11.389482,23.499760,20.042669,21.580166,10.769136,26.638889,65.166359
14.104368,11.267385,22.976028,19.641890,21.724476,10.719079,26.481224,65.037209
13.955576,10.993072,22.026321,18.848513,21.995605,10.614559,26.295034,65.047806
13.972495,10.728456,21.252079,18.067490,22.079573,10.438018,25.993080,65.059013
13.998811,10.619396,20.884468,17.669588,22.040390,10.312955,25.823158,65.148483
14.275909,10.399409,20.260962,15.755958,22.364479,9.882792,24.710495,65.787498
14.295135,10.390775,20.264473,15.411682,22.422314,9.821057,24.562717,65.835526
14.342051,10.349289,20.165466,14.785017,22.400778,9.719120,24.334578,66.228218
14.354555,10.318505,20.082754,14.507053,22.400496,9.664567,24.110731,66.431747
14.349901,10.250427,20.061810,14.251199,22.400236,9.614749,23.887953,66.462357
14.359318,9.986115,20.047930,13.599965,22.275784,9.493199,23.169886,65.917175
14.341178,9.832310,20.126083,13.415838,22.086718,9.440156,23.030289,65.862450
14.373130,9.674992,20.197966,13.335144,21.996325,9.411822,22.832035,65.832359
14.548573,9.249059,20.325125,13.132045,21.713490,9.318986,22.399813,65.723045
14.778764,9.024783,20.368446,12.969964,21.489843,9.261336,22.116070,65.944771
15.060211,8.910033,20.017586,12.727994,21.216036,9.142175,21.649227,66.378006
15.028329,8.889395,19.905758,12.765904,21.138794,9.092820,21.544453,66.344635
14.994934,8.866773,19.919973,12.809421,21.169403,9.086281,21.503527,66.280449
14.773680,8.819401,20.040602,12.944894,21.247313,9.095785,21.198198,66.142426
14.579880,8.844689,20.125309,12.974098,20.999493,9.076302,21.032780,65.925545
14.495167,8.834828,20.187296,12.918358,20.890240,9.062359,20.966515,65.722900
14.220571,8.895837,20.199987,12.630064,20.612150,8.999904,21.071753,64.687103
14.135206,9.028776,20.150097,12.490143,20.533867,8.986959,21.226963,64.419228
14.078591,9.159018,20.046350,12.361407,20.461843,8.970413,21.402208,64.162628
14.026023,9.481949,19.598679,12.013255,19.762573,8.790207,21.701668,62.999043
14.001763,9.564283,19.502260,11.966392,19.352005,8.684384,21.806305,62.653915
13.911823,9.857352,19.127045,11.841724,18.095818,8.287015,21.975805,62.328632
13.835881,9.942712,19.079109,11.786243,17.911999,8.212410,21.959806,62.225296
13.712843,10.021246,18.952806,11.738954,17.742880,8.146521,21.912315,61.965527
13.580327,10.099511,18.857826,11.611597,17.587284,8.095236,21.888245,61.760818
13.308683,10.146339,18.745750,11.391235,16.797760,7.869128,21.801722,61.207130
13.161829,10.129550,18.692692,11.387287,16.323359,7.730461,21.791348,60.816654
12.719582,9.969588,18.391794,11.499940,15.025780,7.384844,21.970610,59.892647
12.465151,9.978956,18.212084,11.511395,14.282379,7.249933,22.196426,59.424629
12.180117,9.975283,17.971277,11.299575,13.301244,7.095100,22.684059,58.766331
12.107677,9.971779,17.976671,11.212440,13.013183,7.073865,22.852886,58.674446
12.037169,9.958964,18.001541,11.158270,12.677390,7.065968,23.004662,58.611645
11.721383,10.027344,18.165117,11.020390,11.933991,7.048009,23.288889,58.303757
11.557692,10.061770,18.179544,10.962740,11.810698,7.100389,23.423498,58.198143
11.260054,10.084334,18.030468,10.800729,11.493072,7.153406,23.743204,57.789417
10.865809,10.207010,17.351583,10.624114,10.953450,7.267115,24.459225,57.729374
10.659254,10.315628,16.683249,10.528183,10.541691,7.409179,25.186787,57.939960
10.543521,10.392240,16.155224,10.658312,10.237927,7.516933,25.763103,57.583477
10.514909,10.361461,15.803540,10.950901,10.271928,7.527908,26.169296,57.775188
10.499038,10.334361,15.601697,11.086007,10.354799,7.506302,26.412178,57.845627
10.436528,10.326279,15.263885,11.310337,10.616777,7.463977,26.722538,57.706085
10.351247,10.349235,15.254846,11.463030,10.889360,7.447767,26.869160,57.673260
10.272593,10.353271,15.214236,11.602320,11.155994,7.458653,26.990004,57.714813
9.862270,10.410673,15.107014,12.080168,11.866552,7.605489,27.510101,57.339924
9.727218,10.432148,15.069552,12.276152,12.122895,7.704728,27.711479,57.124882
9.337730,10.381655,15.055325,12.877141,13.685727,7.962884,28.448652,56.609390
9.219400,10.419913,14.912386,13.034218,14.151731,8.024895,28.639767,56.510269
9.136962,10.514071,14.779299,13.178735,14.605342,8.165038,28.831266,56.356224
9.024638,10.819356,14.566589,13.680090,15.406655,8.391498,29.328445,56.420902
8.959027,11.233920,14.353719,14.174331,16.084953,8.609474,29.924915,56.933968
8.971558,11.490051,14.229889,14.436416,16.383993,8.732834,30.318237,57.298084
9.023535,12.015733,14.045959,15.101825,17.088312,8.971932,30.885248,57.991287
9.040962,12.172922,14.000852,15.670219,17.683100,9.053775,30.954065,58.229057
9.010412,12.447092,13.902567,16.783012,19.274214,9.271582,31.059038,58.640533
9.016952,13.092691,14.370237,19.164814,22.979147,9.926531,32.131847,59.891953
9.126810,13.308028,14.534784,19.685995,23.894686,10.098860,32.617481,60.071346
9.541388,13.970852,14.929609,21.385612,26.555624,10.435094,34.221039,60.760887
9.679208,14.234308,15.005527,22.163305,27.515810,10.512811,34.725239,61.074429
9.818224,14.505204,15.058737,22.925222,28.416117,10.607636,35.126457,61.330765
10.088053,14.996614,15.098545,24.581732,30.173130,10.822282,35.938488,61.916092
10.199244,15.214694,15.146417,25.222399,31.027567,10.944514,36.303596,62.276852
10.324660,15.415338,15.227818,25.881577,31.816326,11.068619,36.581821,62.568058
10.451736,15.577564,15.267237,26.594877,32.714260,11.236048,36.843685,62.713745
11.070870,15.879215,15.444766,28.858530,34.707966,11.668165,37.620293,63.220978
11.547905,16.114517,15.542413,30.261017,35.892719,11.906898,38.110756,63.944775
11.887823,16.321953,15.584079,31.628599,37.026722,12.162819,38.500565,64.403275
12.137041,16.418766,15.538728,32.299843,37.700306,12.307445,38.672813,64.552231
12.833072,16.506651,15.426279,33.687496,38.969219,12.579231,39.028149,65.066803
13.222369,16.642540,15.426691,34.394718,39.424088,12.672809,39.210327,65.313469
13.682188,16.774069,15.406193,35.077171,39.842590,12.756851,39.447174,65.599380
14.598476,16.997658,15.538365,36.366768,40.652981,12.957733,39.955303,66.283424
15.030137,17.107016,15.602908,37.018120,41.005684,13.035230,40.152679,66.643181
16.928198,18.061918,16.159578,39.677044,43.029079,13.745039,40.936329,67.391197
17.367765,18.345137,16.241522,40.217777,43.585423,13.978345,41.304253,67.691856
17.812071,18.605709,16.305260,40.743492,44.098591,14.182042,41.679302,67.957367
19.057413,19.533215,16.871204,42.172409,45.351051,14.827645,42.722885,68.543335
19.430180,19.915571,17.071955,42.621674,45.603745,15.034577,43.022446,68.686890
20.156681,20.618073,17.455490,43.478626,46.016567,15.442271,43.644718,68.967270
21.132139,21.575644,17.623457,44.813766,46.461685,15.948935,44.156406,69.312851
21.402369,21.896109,17.697931,45.377632,46.757198,16.112099,44.250435,69.578110
21.725203,22.279936,17.866934,45.960056,47.111488,16.212093,44.288132,69.823349
22.809910,23.522141,18.436283,47.862896,48.064674,16.505552,45.035309,70.742310
23.082043,23.786131,18.559698,48.354515,47.974571,16.564167,45.137188,70.980957
23.728487,24.251234,18.770836,49.210175,47.791878,16.611965,45.438923,71.382996
24.443508,24.481430,19.150703,49.866959,47.646626,16.661850,45.636147,71.511215
24.871145,24.513718,19.321907,50.281372,47.639305,16.726591,45.713520,71.436508
25.568920,24.647102,19.689903,51.106155,47.744209,16.870760,45.616467,71.193825
25.893570,24.626736,19.935896,51.558674,47.848728,16.932142,45.731548,71.128571
26.277704,24.652456,20.166607,51.872025,47.768826,16.997368,45.910908,71.082481
27.439674,24.641489,20.819784,52.527393,46.806202,17.229156,46.372444,70.879036
28.293102,24.744761,20.983973,52.894474,45.796978,17.246300,46.573761,70.727669
29.105839,24.636301,21.294163,52.918804,44.184803,17.176043,46.406837,70.914101
29.386648,24.599659,21.409540,52.871910,43.707993,17.177197,46.317299,70.933777
29.685776,24.596354,21.539286,52.828766,43.098671,17.178259,46.184280,70.862045
30.142405,24.446020,21.600203,52.267086,41.846218,17.278919,45.776543,70.765755
30.332460,24.346500,21.629385,51.892689,41.200474,17.306700,45.622559,70.871902
30.511311,24.223804,21.719198,51.443890,40.659252,17.357531,45.456074,70.935791
31.084881,24.041618,22.058743,50.753502,39.355228,17.434000,44.997486,71.005310
31.279718,24.027254,22.158575,50.478836,38.845676,17.400620,44.925327,70.973305
31.393456,24.046133,22.226517,50.126804,38.376865,17.354048,44.885437,70.944016
31.452139,24.102495,22.985104,48.593536,36.651428,17.173193,44.523388,70.689140
31.501110,24.182339,23.217602,48.380798,36.454243,17.137789,44.511948,70.577805
31.592712,24.337494,23.997288,48.000671,36.234329,17.002359,44.488522,70.146309
31.326347,24.546846,24.827034,47.583191,35.968544,16.932270,44.503716,69.338776
31.130104,24.563168,25.169168,47.384781,35.813507,16.890985,44.557693,68.876465
30.220469,24.623917,26.142389,47.287697,35.398144,16.813595,44.363369,67.375656
29.564253,24.430056,26.693216,47.112362,35.106213,16.618921,44.262817,66.316986
28.742996,24.094543,27.169163,46.811069,34.822315,16.329321,44.054211,65.435555
27.578367,23.651094,27.877279,46.394138,34.152748,15.783092,43.825924,63.803650
27.214178,23.527517,28.186594,46.182068,33.948505,15.642922,43.714298,63.361465
26.246471,22.961946,29.279905,45.222309,33.957371,15.349934,43.297520,62.537880
25.961262,22.761087,29.750622,44.964577,34.087124,15.357385,43.111115,62.285095
25.639210,22.533407,30.154795,44.724392,34.117489,15.327280,42.947712,62.039963
25.045635,22.141682,30.790413,44.062183,33.977383,15.241867,42.698841,61.626202
24.778517,21.943071,31.094126,43.594337,33.830421,15.200228,42.636929,61.386944
24.570549,21.712780,31.372742,43.053394,33.499420,15.128125,42.653637,61.175976
24.012318,20.969276,31.923336,41.443867,32.238712,14.983434,42.458847,61.102798
23.476952,20.192883,32.285213,39.802349,30.980585,14.909777,41.704479,61.324951
22.983114,19.652159,32.533558,38.621799,30.334776,14.883357,41.375622,61.324986
22.687637,19.446930,32.528503,38.029800,30.050144,14.846756,41.228043,61.286949
22.351511,19.202326,32.586578,37.417694,29.907213,14.761622,41.101433,61.296413
21.282909,18.401350,32.900162,35.444645,29.954393,14.605395,40.685059,61.533287
20.951515,18.147791,33.038502,34.810158,30.140032,14.622157,40.392651,61.520477
20.536366,17.870047,33.161388,34.170609,30.310825,14.628830,40.050140,61.432209
20.131981,17.654278,33.274979,33.524647,30.427799,14.624901,39.744541,61.368950
19.302122,17.180679,33.534637,32.125065,30.462626,14.612867,39.384697,61.166058
17.605585,16.190313,33.718983,29.705763,30.292816,14.597689,38.717331,60.349476
17.248463,15.939179,33.710064,29.216604,30.263006,14.594037,38.428398,60.079727
16.852091,15.697379,33.766155,28.759451,30.328564,14.579920,38.126560,59.958359
15.736575,15.003536,34.117653,27.878519,31.128456,14.785207,37.406956,60.034622
15.434526,14.824378,34.284653,27.775198,31.609238,14.861447,37.233337,59.979092
15.173578,14.669667,34.370541,27.651545,32.171047,14.976693,37.145248,59.914505
14.394880,14.230129,34.626301,26.838175,33.979485,15.508547,36.758003,60.046429
14.167588,14.088179,34.719276,26.519802,34.603878,15.680660,36.581936,60.291138
13.942256,13.925929,34.804817,26.226891,35.178341,15.839013,36.420425,60.537224
13.364915,13.273392,34.888824,24.981722,37.508640,16.440414,35.564449,61.231529
13.176608,13.068198,34.872189,24.551624,37.792458,16.560259,35.320229,61.494434
12.806520,12.662550,34.521416,23.691408,37.914257,16.826626,35.035892,62.310020
12.647067,12.447948,34.254875,23.270760,38.047302,16.950546,34.988529,62.723389
12.504713,12.265076,34.024380,22.972122,38.200813,17.112711,34.842812,63.115173
12.216801,11.647687,33.482437,21.752024,39.079636,17.498821,34.560520,64.265358
12.140721,11.475557,33.371689,21.186838,39.557922,17.616226,34.395164,64.717766
12.090656,11.299878,33.233810,20.670532,40.127865,17.784378,34.248882,65.161934
11.990251,10.807836,32.606892,19.668253,41.774143,18.217171,33.991249,65.906128
11.991958,10.654021,32.514198,19.426107,42.182056,18.360495,33.710037,66.343712
11.960922,10.288213,31.982367,18.930330,43.263645,18.693539,32.848133,67.669830
11.909866,10.178310,31.703970,18.768753,43.508495,18.729486,32.609425,67.941666
11.862891,10.030795,31.275404,18.679554,43.558186,18.748959,32.339863,68.069817
11.829411,9.896996,30.818480,18.588707,43.480183,18.706480,32.073971,68.115120
11.762918,9.587959,29.852098,18.343086,43.341557,18.555674,31.625320,68.119255
11.761272,9.320445,29.152954,18.199305,43.280216,18.537594,31.256580,67.927109
11.859433,9.102341,28.544891,18.012638,43.397060,18.621901,30.764236,67.670845
11.838951,8.943369,28.040262,17.816502,43.600246,18.722153,30.291199,67.428940
11.855355,8.755726,27.548016,17.676365,44.017231,18.806042,29.577785,66.680099
11.865276,8.708717,27.392012,17.639387,44.140167,18.805731,29.294483,66.445976
11.892288,8.676280,27.187283,17.610126,44.310246,18.784954,28.982773,66.215012
11.991712,8.445809,26.720457,17.474827,44.641537,18.770750,28.008379,65.365280
12.021563,8.405926,26.699198,17.453358,44.604408,18.726406,27.745914,64.890709
12.047386,8.369231,26.627941,17.401230,44.423553,18.636459,27.522764,64.487442
12.095948,8.370499,26.234821,17.219419,43.964741,18.248398,27.016668,63.393852
12.136084,8.337607,26.061338,17.112278,43.905231,18.113697,26.931173,63.209156
12.254191,8.303786,25.644375,16.923012,43.800098,17.830719,26.609482,63.108490
12.432574,8.305128,24.919912,16.652090,43.643654,17.308504,25.641827,62.931641
12.435068,8.322164,24.710533,16.630131,43.582382,17.232723,25.476725,62.705486
12.405335,8.359591,23.805180,16.482103,42.779453,16.976032,25.272699,61.622036
12.409907,8.341313,23.533981,16.322592,42.308601,16.802691,25.203133,61.399696
12.421981,8.325269,23.243040,16.087234,41.707729,16.711483,25.123564,61.257404
12.444058,8.277442,22.427923,15.394992,39.340248,16.250145,24.728769,61.144669
12.314278,8.200653,21.955702,14.970469,37.591808,15.930636,24.503098,60.472660
12.271710,8.175531,21.761599,14.776404,36.843849,15.783347,24.390320,60.073620
12.048304,8.067021,21.061583,14.288791,34.807720,15.364440,23.972853,58.858643
11.990903,8.027769,20.835613,14.187445,34.266224,15.258768,23.934118,58.449173
11.804563,7.888814,19.938061,13.746306,32.329842,14.821099,23.647009,56.765572
11.752183,7.843548,19.692778,13.504577,31.801811,14.640260,23.527411,56.472809
11.625322,7.986970,19.139519,13.094048,30.567225,14.271584,23.307953,56.104176
11.605161,8.169054,18.586298,12.775213,29.172701,13.938563,23.279333,55.988937
11.605246,8.265724,18.322855,12.582601,28.299906,13.715283,23.322428,55.777237
11.621500,8.389036,18.094013,12.307115,27.332399,13.509856,23.275455,55.650410
11.595440,8.629736,17.354858,11.401613,24.776659,12.910338,23.123188,54.875111
11.572760,8.641409,17.084314,11.107183,24.072868,12.768548,23.089689,54.453461
11.552216,8.652147,16.824533,10.836293,23.466837,12.636985,23.104618,54.014999
11.599063,8.605507,16.188595,10.408344,21.956528,12.308409,23.064865,53.252415
11.641271,8.611824,15.880491,10.181214,21.091766,12.113742,23.073864,53.114662
11.647878,8.574404,15.681325,9.897375,20.316406,11.918883,23.011139,52.940723
11.529633,8.531033,15.373599,9.623837,19.669857,11.626980,22.997477,52.671524
11.319004,8.459410,15.100511,9.381105,18.878384,11.330943,23.050980,52.089088
11.123722,8.374602,14.694004,9.259953,18.266903,11.048356,23.186460,51.409424
11.026449,8.345920,14.453045,9.174124,17.983126,10.909069,23.268051,51.057781
10.913520,8.319236,14.231352,9.096001,17.708750,10.758370,23.385862,50.688801
10.549026,8.391198,13.629300,9.007753,16.764740,10.349572,23.783434,49.533253
10.474207,8.450460,13.456061,9.048261,16.562376,10.268645,23.836723,49.364784
10.300679,8.517012,12.618959,9.264236,15.844623,10.133321,23.881144,49.185463
10.246406,8.532453,12.341157,9.349468,15.450233,10.059439,23.867434,49.174599
10.210716,8.582032,12.085566,9.427884,15.050426,10.032350,23.892307,49.309624
10.040401,8.668217,11.371741,9.630787,14.230179,10.126356,23.834705,49.742584
9.977365,8.680015,11.220608,9.721882,14.006838,10.162436,23.860622,49.850471
9.926042,8.690794,11.052737,9.795052,13.801355,10.239892,23.872149,49.938480
9.798098,8.828835,10.662371,9.881207,13.740936,10.465498,23.885143,50.194992
9.745683,8.972452,10.475040,9.930503,13.988442,10.566052,23.827469,50.384541
9.707838,9.258995,10.224832,9.907550,14.183796,10.608808,23.726372,50.344620
9.667040,9.429763,10.093196,9.924788,14.269920,10.596562,23.861338,50.263721
9.618512,9.563702,9.977723,10.075803,14.387977,10.582238,24.000038,50.063957
9.569282,10.005253,9.719717,10.691269,14.735766,10.433890,24.385136,49.852936
9.552239,10.135633,9.698258,10.912657,14.839820,10.480321,24.520294,49.909328
9.573425,10.335535,9.806877,11.320005,15.103640,10.670888,24.722208,50.122208
9.705281,10.880843,10.084029,12.516397,16.534744,11.327522,25.724037,50.711094
9.735669,11.072737,10.169483,12.852177,16.994411,11.473072,26.026508,50.865841
9.800342,11.769135,10.348503,14.758694,18.710516,11.920623,26.591330,50.939350
9.851196,11.934805,10.355992,15.407017,19.281199,12.063411,26.760406,51.017822
9.912284,12.011772,10.362885,16.003502,19.926376,12.192599,26.952847,51.157627
10.067524,12.229897,10.431654,17.340269,21.177570,12.439248,27.199589,51.151028
10.138982,12.365946,10.468135,18.133427,21.869764,12.606176,27.343267,51.217346
10.242270,12.470291,10.520442,18.863169,22.683428,12.857938,27.450567,51.426727
10.405183,12.599566,10.661745,20.272245,24.533957,13.392758,27.855972,51.755432
10.546927,12.724337,10.853509,21.806305,26.251814,13.907753,28.662619,52.141933
10.664192,12.785804,10.941444,22.592863,27.147957,14.083296,29.150890,52.444595
10.953535,12.986897,11.246323,25.760023,30.413176,14.828918,30.466993,53.889450
10.992516,13.041180,11.326400,26.552454,31.065399,14.979653,30.744425,54.106808
11.311139,13.229439,11.514380,28.913778,33.151119,15.484353,31.801113,55.350849
11.488879,13.308982,11.567406,29.680363,33.767124,15.705651,32.195030,55.778534
11.807489,13.467182,11.733999,31.072039,35.199558,16.084629,32.874687,56.641270
12.317393,13.739713,12.145270,33.016258,37.247856,16.567047,33.848316,58.039333
12.512799,13.882044,12.319359,33.678188,38.045654,16.719442,34.093681,58.578102
12.692639,14.004718,12.479528,34.457840,38.779667,16.875046,34.332935,59.211109
12.887262,14.120312,12.600487,35.335808,39.448357,16.993668,34.557053,59.889050
13.553109,14.475565,12.919222,37.409515,41.441669,17.422098,35.419277,61.545650
14.070725,14.961955,13.384905,39.045010,43.356483,17.782959,36.270535,63.405746
14.241805,15.157117,13.606204,39.506218,44.118080,17.954103,36.560394,63.922661
14.481661,15.318118,13.809812,40.041790,44.959984,18.152895,36.847115,64.505135
15.101495,15.641092,14.328058,41.858871,47.021458,18.522154,37.441525,65.316589
15.522817,16.155514,14.564576,43.158150,48.268963,18.762882,37.779202,65.810944
15.930154,17.021812,14.977164,44.543858,49.725700,18.898823,38.217117,66.448227
16.449057,18.392145,15.837901,47.014400,51.298252,19.151766,38.767876,67.281937
16.600498,18.802847,16.087032,47.758533,51.773701,19.247578,38.963558,67.531998
17.066095,19.987932,16.953474,50.300854,53.761204,19.483904,39.470009,68.676682
17.180641,20.211391,17.200253,50.806358,54.182720,19.523184,39.536545,68.874748
17.326628,20.416986,17.463907,51.157749,54.532314,19.553677,39.558472,69.157639
17.623934,20.963615,17.727964,52.296242,55.370590,19.406963,39.778404,69.477867
17.709925,21.145624,17.709181,52.515846,55.308060,19.241146,39.783077,69.589691
17.812094,21.338963,17.661377,52.793930,55.255127,19.128654,39.634087,69.818169
18.177107,21.770161,17.702765,53.407425,55.445023,18.903465,39.517609,70.610893
18.291683,21.918455,17.719309,53.530888,55.509331,18.831007,39.677864,70.999237
18.410458,22.064102,17.734529,53.503006,55.576126,18.818413,39.831345,71.415817
18.724718,22.600521,17.913754,53.451439,55.456760,18.837898,40.265202,72.645882
18.841122,22.737556,17.939959,53.427990,55.367760,18.887497,40.384274,72.902748
19.209206,22.902531,18.353874,53.329662,55.231300,18.992567,40.328468,72.994385
19.314260,23.011627,18.585222,53.518085,54.968002,18.951973,40.239662,72.913284
19.553015,23.237743,19.117407,53.902229,54.478519,18.964876,39.814796,73.089096
19.688719,23.329805,19.376219,53.899395,54.332920,18.998835,39.578732,73.142883
19.883295,23.637081,19.814053,53.810146,53.612881,19.071865,39.115166,72.816658
20.484505,24.437187,20.342228,53.558502,53.033890,19.302483,39.278065,72.331284
21.127321,25.373674,20.861843,53.380478,52.910748,19.669102,39.702961,72.160904
21.425619,25.849300,21.090942,53.379379,52.811256,19.821192,39.866638,72.155594
22.091576,27.615797,22.094196,53.275829,53.564617,20.109015,40.069981,71.680275
22.250723,27.970898,22.247271,53.232071,53.799839,20.191126,40.090698,71.582726
22.354786,28.297607,22.574034,53.120083,54.046188,20.268023,40.011528,71.577225
22.651022,29.057167,23.616768,52.567741,54.061523,20.441256,40.093517,71.081802
22.763380,29.258059,23.925646,52.185368,54.099106,20.494305,40.151421,70.787224
22.828285,29.432636,24.232059,51.662415,54.133678,20.543192,40.183289,70.514427
22.874928,29.720364,24.795822,50.778122,54.032055,20.615665,40.176285,70.029922
22.876266,29.761141,25.018753,50.416401,54.014717,20.625948,40.178516,69.730797
22.865471,29.821337,25.274462,50.214211,53.996387,20.635412,40.198792,69.332283
22.719826,29.708950,26.282799,49.241817,53.105915,20.584911,40.191002,67.608383
22.619118,29.722103,26.675276,48.978451,52.749008,20.521524,40.283550,67.109085
22.368748,29.893641,27.610384,48.571609,51.821510,20.334059,40.524086,66.294823
22.059853,29.867691,28.510595,48.090084,50.944527,20.103395,40.636974,65.358894
21.898041,29.704754,28.897863,47.821930,50.396336,20.007881,40.633064,64.881706
21.570341,29.079817,29.248236,46.839367,49.337673,19.780909,40.758900,64.253357
21.423018,28.692400,29.364779,46.300884,48.891155,19.644358,40.780834,63.984821
21.263218,28.331587,29.472006,45.754967,48.326557,19.473263,40.717571,63.674831
20.659979,26.896372,29.872074,43.773594,46.102245,18.920218,40.562508,62.526688
20.494480,26.631208,29.914900,43.251144,45.636204,18.806005,40.556210,62.214394
20.027908,26.035667,29.806229,41.654552,44.276615,18.383230,40.727978,61.489006
19.913092,25.894501,29.877579,41.163803,43.813728,18.232880,40.676102,61.379761
19.808556,25.701698,29.947147,40.663773,43.408726,18.107111,40.597496,61.220181
19.495768,25.379074,30.101572,39.690510,42.501205,17.793884,40.478542,60.361122
19.191889,25.082134,30.275085,38.792625,41.219482,17.462549,40.215660,60.202015
19.019106,24.900326,30.386328,38.490383,40.735981,17.429279,40.138298,59.975769
18.758146,24.557404,30.783817,37.783295,40.464775,17.695498,39.750340,59.615627
18.332081,23.895903,31.620972,36.531246,40.129532,17.901508,39.015373,58.948574
17.955997,23.504850,32.038609,35.529858,40.202957,17.901474,38.634060,58.881390
17.462177,23.119915,32.116661,34.282078,40.435513,17.849903,38.436028,59.257648
17.242300,22.883085,32.036343,33.516216,40.738018,17.851742,38.368221,59.478336
16.891176,22.529835,31.773289,31.896648,41.187000,17.668150,38.309792,59.927509
16.550459,22.313023,31.502449,30.491711,41.640385,17.445656,38.252045,60.700283
16.366768,22.194096,31.549686,29.852709,41.938728,17.322824,38.152496,61.106304
15.302423,21.130812,31.458502,27.942959,42.782146,16.913782,37.082809,62.087345
14.974775,20.700602,31.405603,27.354923,43.176910,16.852018,36.688412,62.327408
13.868103,19.045525,31.123268,24.765514,44.396912,16.910284,35.405838,63.158329
13.609450,18.652317,31.026154,24.191935,44.532902,16.954823,35.135902,63.245552
13.360027,18.309708,30.925035,23.664217,44.789684,16.963999,34.912258,63.369926
12.741644,17.471189,30.045042,22.297976,45.548668,16.982807,34.281368,63.523655
12.502774,17.193054,29.731421,21.907640,45.830482,17.001421,34.059238,63.662163
12.271807,16.946665,29.490175,21.535847,46.081982,17.031849,33.837753,63.845356
11.587535,16.256830,28.861088,20.531946,46.831913,17.107803,33.266891,64.095329
11.372420,16.055128,28.644064,20.231197,47.202312,17.251823,33.100899,64.227104
11.254433,15.885331,28.447542,19.816174,47.693775,17.427158,32.940022,64.483963
11.034585,15.239897,28.373783,17.983400,50.258423,18.066710,32.034260,65.825394
11.054473,15.048921,28.207014,17.611275,50.689621,18.179874,31.744183,66.024551
11.084717,14.601584,27.789228,16.792744,51.451336,18.459562,31.231607,66.437820
11.130322,14.166503,27.302004,16.036116,52.080448,18.733671,30.900606,66.475060
11.202515,13.981097,27.115349,15.694900,52.350300,18.852135,30.679993,66.441536
11.505306,13.620619,26.935310,14.783287,52.456974,19.113489,30.167551,66.596863
11.633842,13.534105,26.977945,14.590863,52.489601,19.166649,30.026535,66.759132
11.776162,13.467497,27.058456,14.412721,52.540470,19.219957,29.808823,66.970139
12.184097,13.294783,27.231709,13.990951,52.590549,19.506207,29.157867,67.379868
12.411211,13.134530,27.365938,13.773952,52.701942,19.797029,28.636293,67.322350
12.603282,12.804998,27.169973,13.500912,52.810196,20.118517,27.837536,67.166435
12.690640,12.689139,27.069475,13.380293,52.869686,20.192013,27.610722,67.222420
12.777015,12.582122,26.999760,13.269317,52.924419,20.239765,27.399500,67.295631
12.906343,12.433043,26.712408,13.034167,53.016468,20.285387,26.987280,67.241768
12.986068,12.339639,26.376690,12.643743,52.587299,19.915220,26.685400,67.096130
13.055092,12.220547,25.817228,12.299428,51.631920,19.360403,26.646088,66.849953
13.171764,12.053040,24.903921,11.910462,50.343151,18.614113,26.690697,66.538971
13.170343,12.007791,24.702602,11.776855,49.740276,18.397953,26.684481,66.232780
13.128486,12.011358,23.989267,11.374262,47.052757,17.682999,26.442957,65.079781
13.080625,12.000664,23.894192,11.304773,46.463867,17.573036,26.316959,64.818626
13.050203,11.962063,23.775509,11.240842,45.856567,17.453924,26.241831,64.459229
13.054561,11.844846,23.453926,11.143074,44.707752,17.252979,26.090939,63.724400
13.026008,11.788503,23.050766,10.977711,43.511230,16.982704,26.057993,62.944351
13.022830,11.711693,22.852190,10.817943,42.788795,16.842804,26.043911,62.640324
12.973893,11.576007,22.467749,10.414634,41.123573,16.520365,26.059341,61.754539
12.912482,11.494973,22.337440,10.216501,40.183388,16.297596,25.997749,61.235252
12.861239,11.420419,22.217552,10.031008,39.359299,16.084641,25.953140,60.766216
12.762820,11.073828,22.195345,9.605076,35.763954,15.201913,25.631693,59.692097
12.758705,10.995079,22.182867,9.611044,35.014206,15.111185,25.532112,59.740498
12.738426,10.846609,22.045794,9.769694,33.108761,14.952638,25.345438,59.789089
12.731504,10.803568,21.967756,9.833656,32.486576,14.893201,25.248791,59.764221
12.731786,10.760383,21.854641,9.912879,31.899622,14.833448,25.173271,59.685150
12.722039,10.703714,21.721775,10.139911,30.454643,14.548799,25.063761,59.430973
12.655925,10.660744,21.619762,10.251173,29.591892,14.349386,25.012520,59.175037
12.587435,10.603307,21.414064,10.406991,28.648970,14.183974,24.911207,58.925362
12.353002,10.473323,20.043430,10.617985,26.283875,13.842327,24.718563,58.560558
12.130122,10.479604,19.195293,10.589730,24.984037,13.701586,24.575584,58.321270
11.930415,10.540452,18.277260,10.489422,23.388556,13.399689,24.329163,58.408009
11.867808,10.539475,18.030495,10.457013,22.941692,13.280673,24.202219,58.410500
11.764350,10.538576,17.781610,10.434855,22.530560,13.171175,24.116175,58.311447
11.498137,10.461021,17.209332,10.395709,21.795792,12.992586,23.963430,58.038746
11.210315,10.397532,16.535732,10.237760,21.166018,12.865887,23.883917,57.340233
10.914646,10.233309,15.536200,9.917965,20.312450,12.624151,23.957170,56.479420
10.674179,10.024491,14.756801,9.635617,19.355717,12.113865,24.254618,56.003998
10.608523,9.923172,14.517670,9.504185,19.086390,11.972588,24.428690,55.916882
10.548118,9.829954,14.303036,9.357442,18.845423,11.842607,24.598015,55.870308
10.199230,9.579941,13.606338,8.878780,17.806419,11.392425,25.134293,55.020050
10.115332,9.480566,13.460009,8.796133,17.583549,11.296391,25.141212,54.950802
10.042205,9.389136,13.325380,8.694084,17.378502,11.202680,25.083136,54.880314
9.842733,9.224375,12.838820,8.456455,17.009821,11.015077,24.800552,54.616619
9.751442,9.208650,12.694167,8.378455,16.987381,11.012417,24.665581,54.385044
9.574799,9.176287,12.425453,8.234178,16.966982,10.993397,24.365133,54.012859
9.441907,9.076414,12.104647,8.103191,16.846170,10.958200,24.118542,53.965843
9.357238,8.969412,11.877745,7.992011,16.524611,10.881413,23.948334,53.662678
9.000577,8.602389,11.331327,7.767512,15.335565,10.621408,23.638681,52.745773
8.869415,8.499827,11.160599,7.711754,15.056269,10.536759,23.579550,52.530701
8.537319,8.110978,10.655385,7.594189,14.212453,10.354850,23.294498,51.918789
8.443871,8.051649,10.534320,7.561094,13.941051,10.289105,23.172556,51.671322
8.355708,8.009414,10.416051,7.525771,13.691351,10.203435,23.003881,51.424541
8.119818,7.980304,9.902445,7.510008,13.088680,10.030463,22.933935,50.876217
8.038815,7.995127,9.665955,7.494818,12.939161,10.016908,22.935455,50.679382
7.964289,8.030672,9.407081,7.461374,13.020035,10.068489,22.960302,50.500706
7.652428,7.980299,8.825190,7.267203,13.182673,9.938814,23.037617,49.152946
7.464012,7.922789,8.548918,7.179892,13.615013,9.829948,23.052530,48.051556
7.323157,7.926597,8.499601,7.079846,14.329319,9.799520,23.686632,47.470722
7.295339,7.943119,8.490019,7.066084,14.702420,9.797070,23.906105,47.469601
7.222461,7.934666,8.505226,7.011903,15.552422,9.732410,24.333899,47.419434
7.190570,8.046987,8.564836,7.267962,16.802841,9.588020,25.047134,47.213821
7.210868,8.045671,8.643723,7.366629,17.197254,9.569150,25.250080,47.248463
7.260098,8.050808,8.655517,7.476134,17.748817,9.524273,25.452061,47.238327
7.354578,8.028317,8.720616,7.930621,19.849785,9.653811,25.966728,46.889423
7.399764,8.037270,8.738328,8.100667,20.698124,9.853576,26.138012,46.777771
7.729941,8.366546,8.875606,8.899179,24.913372,10.585827,26.743937,47.082760
7.807720,8.445968,8.953055,9.142900,26.119446,10.769714,26.884378,47.259407
7.868874,8.615229,9.089875,9.754313,28.581772,11.085243,27.242979,47.314087
7.967627,8.873438,9.187702,10.897721,32.344749,11.661736,27.808603,47.717369
8.004385,8.930936,9.204239,11.390903,33.496468,11.873034,27.967325,47.994144
8.035466,9.023118,9.219453,11.997738,34.556103,12.100798,28.184233,48.331264
8.127741,9.230711,9.259960,13.071965,36.586590,12.539950,28.618410,49.027199
8.200908,9.301792,9.273058,13.644409,37.715012,12.766594,28.831013,49.453522
8.285208,9.367192,9.257709,14.175144,38.866634,12.975117,29.022972,49.870789
8.713040,9.623295,9.217394,15.720942,42.147903,13.553155,29.648092,50.542950
8.918808,9.711333,9.206766,16.185284,43.197495,13.749485,29.859734,50.749908
9.497306,9.903244,9.176059,17.477184,45.950184,14.090930,30.908102,51.740948
9.707097,9.954157,9.160654,17.875011,46.717949,14.203311,31.295698,52.158142
10.110497,10.044936,9.133439,18.624050,48.197227,14.410217,32.002632,53.028648
10.292840,10.087627,9.085235,18.969175,48.965744,14.525788,32.344925,53.384300
10.744804,10.163894,8.983413,19.666687,50.719959,14.835074,32.915794,54.195030
11.394519,10.257721,8.888548,20.539333,52.365616,15.172085,33.585407,55.137936
12.426223,10.497487,8.790262,21.651340,54.838531,15.692584,34.451447,56.699265
13.282585,10.760478,8.760989,22.237226,56.388313,16.118418,35.277439,57.999382
14.051503,10.991307,8.679706,22.808634,57.843197,16.611019,36.171535,59.424839
14.387024,11.067091,8.682738,23.101044,58.685802,16.936483,36.607346,60.098190
14.695716,11.121509,8.752432,23.402897,59.633312,17.261099,36.920593,60.686615
15.895254,11.246286,8.951017,24.149622,62.457962,18.332890,38.090157,62.333164
16.329882,11.274715,9.031854,24.450632,63.132896,18.613461,38.455948,62.906769
16.724310,11.327691,9.097676,24.784918,63.652306,18.884029,38.831036,63.574474
17.850006,11.684712,9.386642,25.978230,64.668365,19.769230,40.043869,66.033272
18.199326,11.838419,9.535037,26.380581,64.702614,20.067060,40.298492,66.795929
19.130829,12.183050,9.743869,27.496380,65.054718,20.735071,41.094040,68.175507
19.430515,12.263943,9.785068,28.014933,65.204338,21.022150,41.467251,68.512672
19.715584,12.370893,9.890905,28.485060,65.449348,21.325151,41.838585,68.874588
19.957172,12.481151,9.971182,28.893505,65.720322,21.630409,42.149506,69.032761
20.285929,12.545443,10.038391,29.206503,65.977554,21.899342,42.434048,69.142830
20.579123,12.602324,10.100227,29.532505,66.328049,22.177055,42.722988,69.377083
21.467131,13.215340,10.520465,30.832468,67.178642,22.936445,43.833782,70.079025
21.883169,13.424912,10.644276,31.207399,67.175926,23.164192,44.222095,70.416824
22.300146,13.588217,10.732989,31.521456,67.121040,23.399214,44.553978,70.712349
23.924278,13.980415,11.028379,32.744362,65.876389,23.378386,46.053520,72.372078
24.593758,14.069177,11.045973,33.045979,64.980988,23.413042,46.711674,73.212997
25.194094,14.202609,10.989191,33.214119,64.062729,23.675308,47.354408,74.305199
25.777971,14.377441,10.943921,33.411785,63.470425,24.025963,47.989277,75.257584
26.072859,14.500101,10.996291,33.630981,63.089874,24.159992,48.339455,75.498810
26.705811,14.733786,11.088802,33.898296,62.483875,24.387827,48.951057,75.594940
27.297136,14.860826,11.262492,33.836819,62.144363,24.523689,49.528172,75.557320
27.594397,14.936537,11.357753,33.856659,61.872894,24.614914,49.813072,75.525558
28.126133,15.110646,11.526033,33.700317,60.992962,24.768566,50.436302,75.246979
28.619347,15.336804,11.678844,33.615894,60.027607,24.928192,51.296062,75.139122
29.664623,15.982852,12.151526,34.246525,58.353065,25.334448,52.321747,74.547264
29.837666,16.145775,12.339076,34.484127,58.175888,25.561218,52.431301,74.258842
29.998285,16.292648,12.511627,34.685562,57.963333,25.739473,52.458122,73.961716
30.355776,16.651224,13.439859,35.307178,57.333279,26.135868,52.720837,72.961098
30.412487,16.757196,13.788687,35.483501,56.938950,26.174273,52.766232,72.643318
30.398596,16.854692,14.119199,35.544197,56.500648,26.165211,52.843094,72.324547
30.073404,17.108213,15.076864,35.470566,55.712276,26.097458,52.715881,71.349045
29.889967,17.146864,15.405495,35.562634,55.623177,26.036570,52.638268,71.098846
29.638245,17.182426,15.725464,35.647343,55.627697,25.993959,52.554512,70.914719
28.605478,17.414072,17.511992,35.922050,56.449768,25.703850,51.940910,70.167290
28.378519,17.546810,17.945208,35.956348,56.636730,25.566864,51.815128,69.911682
27.592291,18.062454,19.050001,35.965202,56.177666,25.036331,51.346245,69.101074
26.826746,18.395634,19.657244,35.686260,55.787037,24.681288,50.999016,68.554840
26.488363,18.499811,19.978540,35.648643,55.810543,24.520287,50.809715,68.246368
25.502213,18.553768,20.621113,35.244995,56.474064,23.919504,50.330849,67.482849
25.178349,18.556021,20.713215,35.032867,56.687565,23.676138,50.164310,67.262115
24.884851,18.558094,20.785660,34.837708,57.048435,23.464176,49.996609,67.102890
23.894459,18.705008,20.872272,33.325783,57.609528,22.602949,48.596626,66.981514
23.772856,18.730972,20.829836,32.908836,57.431839,22.334366,48.239761,66.993965
23.094282,18.678434,20.648918,31.494345,56.548218,21.601221,47.062634,66.954552
22.873238,18.563873,20.469519,30.990320,56.341770,21.343128,46.615707,66.906364
22.615047,18.456814,20.304464,30.542477,56.211521,21.100668,46.179764,66.708298
21.832310,18.268574,20.008738,29.733725,56.294857,20.675661,45.468613,66.255173
21.053463,18.133904,19.816385,28.871460,56.374916,20.390892,45.069260,66.038956
20.618526,18.061026,19.765530,28.475489,56.557709,20.297020,44.803970,65.937660
19.568768,17.826990,19.658531,27.478449,56.994232,20.059637,44.059181,65.218620
18.760017,17.417873,19.614866,26.535515,56.493069,19.597933,43.173031,64.129875
17.999342,17.086718,19.465927,25.052923,55.850300,19.268002,42.225807,63.647186
17.758635,17.024109,19.442596,24.487085,55.719654,19.200451,41.820660,63.706573
17.289547,16.900696,19.430647,23.467564,55.885963,19.101610,41.016731,63.657265
16.757463,16.772760,19.467157,22.528477,56.258610,19.019232,40.292809,63.833889
16.492062,16.723188,19.542404,22.122831,56.608986,19.013605,39.904522,63.898243
16.225830,16.712938,19.623745,21.769041,56.967628,19.037046,39.373219,63.882793
15.088312,16.391016,19.722988,20.218256,58.004402,19.144352,37.911160,63.831902
14.706802,16.218782,19.706841,19.599977,58.337811,19.194567,37.437225,63.721447
13.710228,15.736561,19.506916,17.730827,58.686550,19.006029,36.301178,63.499794
13.447330,15.664453,19.275736,17.178734,58.852577,18.936478,35.966919,63.508167
13.200631,15.598110,19.083597,16.639757,59.174057,18.887552,35.613346,63.457310
12.612726,15.487583,18.791838,15.655918,60.402645,18.817757,34.682453,63.485580
12.473171,15.447121,18.768578,15.420935,60.733978,18.819458,34.356884,63.510792
12.370461,15.408034,18.791763,15.168305,60.917477,18.827318,34.047802,63.640862
12.248309,15.292089,18.731304,14.533275,61.332954,18.966776,33.541084,63.667942
12.208225,15.242373,18.655912,14.189324,61.321110,19.003901,33.302425,63.531746
12.150952,15.159326,18.532316,13.857850,61.137947,18.956139,33.083366,63.255608
12.147008,14.707110,17.698759,12.993544,60.223042,18.934946,32.490704,62.673138
12.248857,14.487270,17.375313,12.714580,59.875351,18.869043,32.273483,62.746727
12.596844,13.915918,16.510584,12.028493,59.001469,18.695282,31.526403,63.200851
12.736399,13.766084,16.354204,11.863260,58.725567,18.601967,31.272736,63.450508
12.866679,13.639166,16.141579,11.658160,58.355553,18.499126,31.073071,63.652157
13.251199,13.386931,15.616930,10.691178,56.911102,18.464548,30.690550,63.775429
13.367069,13.336587,15.484915,10.376802,56.374386,18.485659,30.599081,63.716110
13.471910,13.276558,15.363458,10.087562,55.873840,18.541525,30.601707,63.677345
13.551288,13.239767,15.314170,9.821448,55.314182,18.607164,30.665388,63.586643
13.780372,13.037287,15.225670,9.220759,53.853809,18.769310,30.951210,63.439098
13.757018,12.878781,15.117879,8.837031,52.837204,18.781677,30.895376,63.090981
13.740498,12.853556,15.118347,8.746388,52.656746,18.784708,30.913908,62.997753
13.729209,12.854138,15.166154,8.618354,52.516544,18.794304,30.921474,62.945732
13.643157,12.688716,15.438198,8.087921,51.361847,18.777884,30.963854,62.869835
13.629800,12.620530,15.544370,7.920996,50.858185,18.731663,30.855358,62.924919
13.631839,12.557796,15.591210,7.767416,50.376213,18.658298,30.676842,62.857689
13.649340,12.520648,15.647944,7.617950,50.026104,18.562061,30.524614,62.802624
13.662095,12.590530,15.722948,7.318340,48.987698,18.386295,30.304148,62.677139
13.472485,12.879642,15.732200,6.789611,47.062077,17.831455,30.059608,62.264698
13.401113,12.955050,15.805300,6.682753,46.633938,17.671379,29.974096,62.226143
13.267516,13.019124,16.034182,6.512289,45.686798,17.315998,29.742990,62.070541
12.966866,12.994048,16.172886,6.403485,43.652378,16.702808,29.433632,61.512550
12.884922,12.998896,16.086327,6.374062,42.906311,16.494404,29.357861,61.430683
12.822817,13.003355,16.014442,6.346992,42.246960,16.275665,29.210897,61.264095
12.700640,12.936867,15.730025,6.257075,40.006481,15.505051,29.055542,60.840786
12.658834,12.949283,15.624130,6.218140,39.293236,15.280377,29.050198,60.631134
12.624196,13.026936,15.526702,6.182318,38.637009,15.051174,29.073753,60.454899
12.572593,13.329705,15.253832,6.032856,36.095661,14.055764,29.637819,59.853706
12.559701,13.407481,15.310004,6.046810,35.480816,13.827327,29.765415,59.789181
12.678603,13.376245,15.339601,6.029936,32.941101,13.284320,30.032795,59.785225
12.727933,13.330585,15.236025,5.929725,32.071075,13.120982,30.123251,59.683163
12.743968,13.264874,15.129926,5.819135,31.255707,12.983099,30.211405,59.570229
12.843257,13.114728,14.550007,5.651904,28.914156,12.525291,30.534046,58.954311
12.835310,13.115098,14.369135,5.635445,28.310490,12.338490,30.609140,58.659088
12.857330,13.112063,14.202724,5.620303,27.755091,12.179047,30.710226,58.425770
13.032594,13.202207,13.762697,5.581760,26.216591,11.814577,31.024261,58.344063
13.068225,13.229084,13.628319,5.571041,25.735788,11.699847,31.159203,58.304554
13.058304,13.321473,13.046341,5.546822,24.003813,11.344172,32.146179,57.446548
13.066244,13.317050,12.879439,5.518750,23.690828,11.254028,32.432201,57.093548
13.071202,13.343245,12.709788,5.492923,23.443596,11.177329,32.634476,56.689999
13.157127,13.534230,12.463276,5.461300,22.731750,10.742962,32.907566,56.328693
13.190429,13.600842,12.491813,5.464345,22.687578,10.583593,32.959484,56.365891
13.216083,13.639344,12.535492,5.475654,22.646940,10.440391,32.931904,56.364349
13.152067,13.721475,12.397681,5.481447,22.773438,10.038530,32.314049,55.951321
13.095413,13.761066,12.387316,5.485516,22.741692,9.915477,32.236885,55.824402
13.048285,13.786853,12.377780,5.489261,22.705929,9.897845,32.174286,55.761833
12.844552,13.810680,12.253235,5.465336,22.621601,10.187978,32.065678,55.932560
12.833314,13.798769,12.182578,5.489035,22.755209,10.267691,32.054939,56.069588
12.717525,13.933910,11.835516,5.576053,23.130791,10.588225,32.103920,55.955074
12.643584,13.980931,11.744957,5.617715,23.459707,10.778004,32.110909,55.973370
12.564155,14.003623,11.655562,5.744481,23.804380,10.953511,32.101490,55.990974
12.438578,13.858092,11.465787,6.179609,24.957897,11.308361,32.363567,56.027126
12.416709,13.818122,11.419145,6.337471,25.442009,11.404606,32.436073,55.973042
12.460276,13.765343,11.342570,6.648051,26.336226,11.522079,32.746037,56.299370
12.508648,13.618912,10.936962,7.088403,27.871758,11.842593,33.327282,56.829891
12.505975,13.558453,10.806885,7.247511,28.546652,11.967387,33.463833,56.982338
12.568405,13.476788,10.477380,7.688403,30.574816,12.453161,33.860184,57.466255
12.568849,13.505616,10.385386,7.882311,31.177027,12.673552,34.051788,57.629711
12.589797,13.490638,10.291986,8.196609,31.766706,12.879159,34.183048,57.776756
12.571308,13.404428,10.206971,8.872540,32.901585,13.308106,34.454346,58.072624
12.556692,13.313014,10.211085,9.209464,33.301060,13.572931,34.600594,58.179909
12.566282,13.162679,10.279240,9.654415,33.668594,13.840108,34.843037,58.347458
12.615616,12.770964,10.461269,11.173179,35.485058,14.720550,35.330788,59.398579
12.668681,12.498973,10.388191,12.204803,36.982128,15.414381,35.622330,59.947071
12.573580,12.159132,10.121873,13.669326,39.394463,16.483820,36.358616,60.287159
12.546082,12.083805,10.038131,14.185985,40.246391,16.806511,36.589043,60.544079
12.525060,12.035058,9.961086,14.668127,41.122517,17.127789,36.810051,60.805599
12.406313,12.010878,9.789642,15.459838,42.644184,17.800892,37.239914,61.272362
12.383993,12.002924,9.754291,15.840892,43.207172,18.205477,37.465672,61.557816
12.369589,11.956678,9.775053,16.232533,43.849937,18.710445,37.700687,61.975971
12.282037,11.846189,10.216281,17.809065,46.413799,20.085571,38.301601,62.668869
12.209375,11.807091,10.369463,18.313372,47.414776,20.547405,38.362720,62.824265
11.947556,11.788677,11.143147,20.874159,52.430290,22.832062,38.490459,63.644115
11.818519,11.829416,11.422066,22.217140,54.228416,23.757229,38.534531,64.276733
11.727526,11.801412,11.568297,22.828733,55.093773,24.270077,38.651619,64.601212
11.623034,11.694180,11.501218,24.474245,57.505203,25.696289,39.385635,65.180298
11.689507,11.691735,11.488152,24.963675,58.342731,26.154041,39.607300,65.364037
11.877398,11.760896,11.486978,25.454441,59.028210,26.585577,39.990814,65.548164
12.431626,11.909639,11.402470,26.727871,61.147022,27.689131,41.194561,66.309357
12.606833,11.954910,11.352775,27.202000,61.834949,27.925209,41.550480,66.524361
12.779455,12.052375,11.307857,27.679834,62.503014,28.096579,41.919235,66.614746
13.574628,12.601949,11.315748,29.525064,64.955566,28.828207,43.021065,66.663818
13.760908,12.704815,11.329606,30.110460,65.476440,29.057734,43.248283,66.627106
14.285167,12.842153,11.328351,31.439480,66.522423,29.438477,43.536400,66.522606
14.933190,12.983124,11.328765,32.581707,67.157684,29.778728,43.833538,66.187981
15.198044,13.042241,11.286157,33.064880,67.455933,29.961580,43.935982,66.152740
16.010567,13.318316,11.182219,34.201195,68.051903,30.522890,44.176987,66.185333
16.267826,13.452994,11.163218,34.547215,68.175568,30.745312,44.268539,66.180267
16.519386,13.630631,11.165648,34.870678,68.422569,31.021791,44.383190,66.096176
17.279737,14.154636,11.296833,35.980797,68.998421,31.718899,44.586590,65.623764
17.570749,14.325867,11.355983,36.298561,69.142776,31.911728,44.724876,65.495461
18.261318,14.867886,11.509976,37.160435,69.454857,32.542244,45.214081,65.005608
18.710583,15.218059,11.578914,37.568542,69.904137,33.030441,45.500294,64.740402
18.933676,15.387979,11.589056,37.729542,70.240112,33.320732,45.613434,64.630142
19.456068,15.787786,11.603841,38.242348,70.864166,33.911083,46.042740,64.476967
19.888601,16.420355,11.707671,38.803650,71.668709,34.460720,46.263958,64.063309
20.304195,16.949915,11.834973,39.115948,72.369354,34.880508,46.437294,63.583408
20.955374,17.752592,12.063837,39.290016,73.416725,35.434090,46.914463,63.158268
21.361738,18.283037,12.243802,39.284702,74.267586,35.658897,47.078903,63.133739
22.200726,18.837721,12.452695,39.404831,75.201096,36.003448,47.442341,62.720543
22.516567,18.996935,12.535514,39.429577,75.545975,36.052097,47.629406,62.616585
22.794661,19.148764,12.554543,39.443546,75.847748,36.038578,47.956448,62.528591
23.542191,19.591696,12.291059,39.195324,76.086624,35.637959,48.990185,62.636387
23.721786,19.724920,12.205604,39.042274,76.040115,35.421432,49.339607,62.725471
24.054144,19.908354,12.126979,39.087856,76.010376,35.190266,49.770126,62.798969
25.299400,20.611544,11.903448,39.860710,75.988266,34.790634,51.124798,62.788261
25.651680,20.801910,11.850348,40.107025,76.036964,34.637035,51.502827,62.684357
26.019035,20.906910,11.716492,40.177128,75.980492,34.454243,51.857922,62.684830
27.261955,21.037046,11.466144,40.205814,75.737930,33.813129,52.562294,62.355228
28.096989,21.159508,11.359755,40.239861,75.301750,33.408630,52.538418,61.785347
28.858053,21.380135,11.153075,40.200676,74.469765,32.785206,52.400711,60.944378
29.002350,21.401724,11.132944,40.176670,74.068359,32.660576,52.160988,60.717327
29.123173,21.447575,11.114422,40.151653,73.648949,32.566849,51.987770,60.390549
29.359356,21.407837,11.611261,39.706322,73.062584,32.275749,51.455330,59.364895
29.394533,21.299641,11.741907,39.520607,73.025169,32.179028,51.260288,59.221462
29.451130,21.203428,11.862107,39.391590,73.062538,32.149338,51.098331,59.167728
29.673100,20.999887,12.249501,38.715130,72.756027,31.781693,51.016342,58.960205
29.721033,20.928907,12.510802,38.561317,72.626610,31.706907,50.992706,58.965832
29.782434,20.894655,12.751211,38.479240,72.353043,31.590313,50.975060,58.998962
29.694164,20.770048,13.549731,38.378841,71.546425,31.179474,50.773724,59.067318
29.701986,20.762529,13.866990,38.402260,71.356514,31.052238,50.763260,58.991440
29.450153,20.633970,14.848700,38.332073,70.883385,30.609964,50.555214,58.998241
29.301634,20.519865,15.152158,38.276814,70.694336,30.404062,50.394375,59.001766
29.159122,20.400055,15.444109,38.180347,70.459694,30.217791,50.297977,59.046696
28.942938,20.100674,16.228178,37.710682,69.463638,29.474846,49.840439,59.243168
28.866821,20.009453,16.576128,37.546890,68.986160,29.231197,49.615135,59.489136
28.813610,19.846249,16.906893,37.509453,68.742249,28.977072,49.309879,59.685932
28.530634,19.292101,18.135532,37.442547,67.299225,28.021313,48.610413,59.551491
28.411524,19.107674,18.532457,37.420963,66.662651,27.677919,48.341255,59.457745
27.906147,18.449886,19.552971,36.759567,65.233528,26.610432,47.222004,59.364067
27.753784,18.192911,19.901073,36.405392,64.659554,26.260080,46.807819,59.418751
27.575792,18.017534,20.204922,36.087887,64.024132,25.918039,46.377083,59.459381
26.981165,17.693386,21.140747,35.288879,62.029682,24.900997,45.056923,59.672115
26.785759,17.545980,21.379932,35.047852,61.266029,24.581593,44.688976,59.846989
26.607235,17.437700,21.599995,34.778393,60.427505,24.315722,44.364899,60.033688
25.488142,17.098381,22.351131,33.581127,58.102428,23.759731,43.095242,60.635323
25.143211,17.007362,22.493073,33.301262,57.743881,23.622242,42.894794,60.919479
24.790720,16.918280,22.698652,32.991791,57.404621,23.486763,42.580063,61.144035
24.474440,16.868015,22.887794,32.697948,57.245804,23.329729,42.209724,61.262104
24.168093,16.845621,23.053419,32.529102,57.090477,23.169874,41.850056,61.266254
23.111294,16.713387,23.634804,31.765629,56.942329,22.974243,40.659027,61.012535
22.724236,16.577753,23.874357,31.227684,56.818722,22.894411,40.105446,60.922527
22.327585,16.417902,24.114731,30.563433,56.719112,22.777407,39.597675,60.890701
21.414436,15.945608,24.827759,28.781036,55.808640,22.313738,38.276176,61.148117
20.409594,15.652147,25.336319,27.047779,55.122032,21.879086,37.084763,61.404861
19.357285,15.446176,26.083515,25.554905,54.356682,21.374140,36.279564,61.971329
18.994402,15.319695,26.374529,25.142134,54.075577,21.192453,35.944382,62.102924
18.660145,15.244756,26.600136,24.730396,53.806648,20.978228,35.706619,62.149811
17.858515,15.073538,27.033529,23.925877,53.930172,20.653393,35.106617,62.173420
17.625223,15.003495,27.034155,23.726461,54.002144,20.633978,34.992386,62.208885
17.426872,14.942010,27.014626,23.542988,53.990017,20.609365,34.833973,62.304993
17.030178,14.854088,27.014051,23.167469,54.087898,20.524050,34.831253,62.452972
16.725424,14.727348,26.994827,22.711916,54.016014,20.550951,34.696072,62.860123
15.955937,14.540303,26.652292,20.743597,54.362457,20.817791,35.024380,63.651161
15.813789,14.521345,26.513363,20.221781,54.428173,20.884575,35.102905,63.807087
15.693013,14.478447,26.384571,19.703430,54.477116,20.951975,35.109371,64.002754
15.443882,14.180652,25.739187,18.250782,54.525387,21.162142,35.068432,64.628181
15.432941,14.089348,25.590761,17.838482,54.840656,21.270967,35.072620,64.712997
15.414927,14.015720,25.425924,17.459646,55.007381,21.353142,35.066181,64.907684
15.196845,13.988706,24.976351,16.893974,55.486969,21.635170,35.178677,65.813057
15.077128,13.979128,24.913147,16.748739,55.568760,21.682436,35.363869,66.005493
14.999990,13.977253,24.743391,16.587448,55.644009,21.761614,35.587448,66.072350
15.018713,14.162923,24.377581,15.588287,55.727959,22.074497,36.282249,66.454475
15.185596,14.283808,24.389719,14.999085,55.899776,22.239935,36.463840,66.643364
15.267568,14.289015,24.313160,14.721306,56.129429,22.265181,36.533863,66.749748
15.507781,14.271365,24.285555,13.817568,57.257111,22.223452,36.861557,66.954750
15.553735,14.187009,24.300707,13.616959,57.618698,22.209909,36.968895,66.993370
15.671215,13.835557,24.075773,13.016543,58.579300,22.254128,36.977818,66.562500
15.693047,13.716734,24.012743,12.875815,58.970131,22.332209,36.882229,66.273018
15.811670,13.581587,23.901402,12.608618,59.592091,22.253607,36.873260,66.075508
16.128624,13.416309,23.717772,12.347215,59.662392,22.002604,36.874947,65.878838
16.307034,13.453775,23.555828,12.173543,59.419708,21.866741,36.550476,65.869797
16.550297,13.394842,23.514212,11.714241,58.504974,21.646126,35.898151,65.766838
16.596300,13.378591,23.434799,11.601521,58.073627,21.605881,35.710270,65.753014
16.540916,13.384577,23.406281,11.497811,57.742836,21.596388,35.558723,65.670082
16.116789,13.319015,23.433233,11.352370,56.817768,21.506210,35.267426,65.057114
15.975253,13.344279,23.428532,11.293791,56.588486,21.462910,35.221272,64.803650
15.874086,13.394641,23.445621,11.263446,56.231888,21.425142,35.176468,64.623390
15.566424,13.390834,23.396467,11.202104,55.267986,21.335819,34.981064,63.981884
15.463808,13.354119,23.242056,11.164053,54.984760,21.304100,34.865128,63.692974
14.969727,12.993667,22.425762,11.288658,52.795219,21.263777,34.440426,62.572128
14.891437,12.956125,22.328789,11.306000,52.148445,21.172035,34.371143,62.332684
14.803500,12.897368,22.137953,11.353655,50.883759,21.034662,34.105015,61.996483
14.642529,12.790658,22.103197,11.536974,49.566986,20.747923,33.483891,60.989117
14.493126,12.776097,22.110609,11.609715,49.116795,20.524309,33.283592,60.579258
14.339129,12.777841,22.114502,11.670918,48.702599,20.322060,33.042419,60.173336
14.019009,12.773361,21.910908,11.826698,47.391060,19.589725,32.384434,59.284168
13.907870,12.854487,21.846004,11.845162,46.975060,19.406929,32.277870,58.994404
13.795611,12.922512,21.786291,11.906384,46.600994,19.225893,32.103683,58.814682
13.358170,13.407376,21.765524,12.071394,45.122967,18.730824,31.561956,58.024052
13.052304,13.711952,21.693407,12.167055,43.917953,18.485245,31.174871,57.403267
12.623106,13.901111,21.764223,11.818928,43.023109,18.202703,30.528374,55.835011
12.527532,13.985202,21.805309,11.713628,42.891018,18.125360,30.180902,55.437744
12.467991,14.055634,21.834129,11.592772,42.787354,17.994392,29.836798,55.190517
12.385499,14.171643,21.817074,11.352153,42.410378,17.849808,29.488003,55.107716
12.313298,14.189840,21.642929,11.212550,42.151302,17.809467,29.360907,55.121525
12.250769,14.187640,21.430937,11.101028,41.857727,17.756512,29.235958,55.159023
12.058149,14.238519,21.141012,10.906693,41.147068,17.626299,29.053242,55.330860
11.966243,14.290545,21.017387,10.822300,40.559994,17.564945,28.992491,55.376266
11.776935,14.480351,19.964725,10.462274,37.568878,17.395435,28.716818,55.219810
11.780627,14.534609,19.731604,10.349389,36.749325,17.302725,28.637432,55.320415
11.837645,14.593135,19.516163,10.221394,35.963173,17.174044,28.556463,55.486557
12.053258,14.795040,18.967796,9.764277,33.554577,16.635221,28.423016,55.624695
12.110449,14.930228,18.829397,9.624069,32.731598,16.467836,28.400063,55.462574
12.136665,15.042241,18.709160,9.465716,31.993317,16.313833,28.248569,55.261364
12.268090,15.278699,18.478268,9.159415,30.848476,16.096189,27.996367,54.490726
12.356084,15.338542,18.400328,9.022530,30.337486,16.017923,27.930340,53.952976
12.437241,15.365832,18.250311,8.896589,29.868864,15.977666,27.887232,53.410255
12.617631,15.375683,17.626949,8.495408,28.504995,15.912883,27.951302,51.915974
12.670366,15.372214,17.412727,8.368194,28.065094,15.831983,27.966803,51.466106
12.826054,15.394640,16.483175,7.968349,26.691057,15.518694,27.850744,50.385925
12.897089,15.422939,16.162973,7.840320,26.302650,15.473095,27.741610,50.076778
12.974805,15.410806,15.868373,7.722528,25.907295,15.431487,27.609823,49.719463
13.093448,15.370459,15.352053,7.468255,25.314339,15.392569,27.415518,48.834995
13.208182,15.396106,14.831980,7.242100,24.841774,15.379365,27.272591,47.774933
13.270249,15.397573,14.662277,7.146619,24.629250,15.351413,27.293831,47.366978
13.488031,15.349103,14.293209,6.775532,24.023697,15.355466,27.385122,46.549175
13.602790,15.304996,14.121358,6.458337,23.462330,15.318355,27.514864,46.324848
13.719158,15.241474,13.755442,5.943390,22.395334,15.450333,27.690926,46.136314
13.785351,15.242682,13.661811,5.777031,21.910381,15.525057,27.729557,46.080906
13.892019,15.244158,13.575667,5.622447,21.461998,15.592878,27.715693,46.093849
14.234319,15.089095,13.346686,5.197951,20.442099,15.851509,27.554165,45.710518
14.319721,15.045701,13.267370,5.136960,20.166582,15.942687,27.502151,45.576363
14.350452,14.995337,13.223500,5.094642,20.128412,16.020504,27.443115,45.427635
14.580482,14.698844,13.136662,5.546326,20.454107,16.314726,27.553520,45.204941
14.782919,14.337700,13.095385,5.801246,21.160929,16.504845,27.687340,44.987701
15.034898,13.958841,12.890549,6.297862,22.485243,17.011581,27.932756,44.536362
15.109251,13.850190,12.768774,6.480851,22.937721,17.140594,28.044191,44.451138
15.186543,13.737466,12.654990,6.645090,23.354025,17.435816,28.116243,44.551247
15.283776,13.346943,12.164916,7.351303,24.237391,18.225914,28.207073,44.598167
15.219894,13.252136,12.072578,7.614703,24.641333,18.477074,28.169191,44.352436
15.234620,13.024016,11.909283,8.218065,25.820717,18.848852,28.076773,44.105087
15.331824,12.662642,11.692792,8.951666,27.920589,19.380854,28.391813,43.754971
15.364944,12.523640,11.594871,9.330059,28.819473,19.616596,28.545122,43.668262
15.404808,12.095961,11.364808,10.994637,31.924784,20.398567,29.329651,43.167450
15.391521,12.032436,11.307517,11.387156,32.827141,20.678761,29.767138,42.983810
15.327855,12.015782,11.254869,11.771512,33.813896,20.933506,30.258364,42.752563
15.013954,11.858635,11.197954,13.180387,36.824722,21.545958,31.354765,42.687771
14.887833,11.763303,11.276073,13.762991,37.956928,21.735069,31.605835,42.732628
14.792042,11.669890,11.342124,14.339678,38.979713,22.039362,31.834217,42.763130
14.610741,11.529657,11.489495,15.687556,41.011356,22.525290,32.368603,42.787411
14.525833,11.493093,11.542346,16.271925,41.910915,22.727028,32.536530,42.853352
14.465448,11.476331,11.590971,16.809578,42.889641,22.902046,32.711651,43.099277
14.504500,11.556542,11.804818,19.076448,45.978924,23.667427,33.605286,44.364780
14.744291,11.515177,11.946484,20.650282,47.606735,24.047155,34.197853,45.307362
15.266879,11.443769,12.226655,23.122818,49.831524,24.810524,35.307812,47.130264
15.409040,11.430491,12.270598,23.867607,50.636322,25.091797,35.665421,47.821388
15.515977,11.390094,12.311028,24.564045,51.470383,25.425522,36.119350,48.488873
15.950027,11.290005,12.490191,26.522747,54.180073,26.427776,37.196491,50.469875
16.147427,11.272600,12.502670,27.249502,55.060799,26.801363,37.510075,51.143532
16.688452,11.304709,12.748026,28.896276,56.622887,27.313412,38.070419,52.423882
17.451769,11.452991,13.056539,31.089054,58.745819,27.729528,39.038425,53.958691
17.945673,11.621826,13.283937,32.660168,60.151936,27.879705,39.588421,54.936729
18.665510,11.952621,13.295174,34.760559,61.684074,28.205221,40.708035,56.673195
18.867832,12.048043,13.284585,35.580101,62.207504,28.322475,41.165894,57.289913
19.084900,12.111455,13.256868,36.303169,62.813709,28.425383,41.580051,57.950947
20.104322,12.522755,13.208903,37.959175,63.957218,28.806744,43.037766,59.507988
20.410999,12.650171,13.255962,38.388344,64.128571,28.858950,43.334351,59.838703
20.706387,12.780638,13.289791,38.845764,64.120674,28.941599,43.670506,60.260422
21.961214,13.352715,13.423273,40.016998,63.669811,29.077278,44.863968,61.703632
22.409338,13.484742,13.484717,40.310913,63.368710,29.011213,45.329811,62.218414
22.832409,13.606211,13.559131,40.653854,63.087036,28.951056,45.725876,62.683491
24.308090,14.131375,13.856773,42.380756,61.429684,28.496756,47.793377,64.008751
24.627504,14.307206,13.953963,42.690735,61.151585,28.414997,48.425468,64.377159
24.952208,14.495957,14.043857,43.060745,60.870129,28.306789,48.992340,64.732048
25.375822,14.946264,14.252376,43.598289,60.409073,28.285793,49.879318,65.356705
25.639660,15.378583,14.476541,44.055893,60.356300,28.455166,50.510639,65.982674
26.037504,16.037476,14.952085,44.549694,59.639931,28.498423,51.233749,66.945862
26.177540,16.373264,15.342388,44.806797,59.435181,28.631985,51.578754,67.355064
26.508846,17.090128,16.282223,45.592007,58.940022,28.810369,51.810905,68.350471
27.059418,18.055260,17.629095,46.589619,58.197140,28.875727,51.541054,69.135094
27.455832,18.615070,18.326813,47.269882,57.561451,28.984003,51.636166,69.295593
27.867727,19.088896,18.792410,47.764267,56.656555,28.885321,51.834373,69.866524
28.004648,19.306501,19.039057,47.832806,56.316311,28.855139,51.896950,70.230949
28.143612,19.449234,19.278477,47.893730,55.875118,28.875502,51.987373,70.637909
28.534670,19.706541,19.971506,48.414692,55.437981,29.052097,52.478970,71.273239
28.711515,19.789968,20.182978,48.581829,55.511162,29.062372,52.598518,71.365982
28.785059,19.885422,20.440722,48.709606,55.571884,29.046545,52.721409,71.511505
28.789455,20.157322,21.182198,48.293812,54.967628,28.860249,52.933884,72.037788
28.748260,20.254807,21.420631,48.049839,54.880486,28.744192,52.940575,71.926369
28.461836,20.361179,21.905775,47.584190,54.571548,28.483788,53.019184,71.653976
28.138960,20.436008,23.115511,47.322960,53.354694,27.941519,52.838474,71.082115
28.059761,20.446754,23.683952,47.300396,52.821644,27.705849,52.876141,70.950104
27.397675,20.540565,25.521076,46.806015,51.807861,27.070250,53.187843,70.763016
27.148432,20.559114,26.024160,46.481178,51.802979,26.912882,53.141106,70.658813
26.888933,20.532112,26.543371,46.340797,51.892288,26.785183,53.093502,70.655991
26.169739,20.453512,27.874191,45.862125,52.527153,26.581686,53.026417,70.268669
25.884871,20.389908,28.349461,45.600605,52.818485,26.670860,53.015141,70.132271
25.576937,20.317745,28.783524,45.376427,53.192627,26.758354,53.011677,70.008240
24.643513,20.220778,29.947813,44.506123,54.483341,26.691336,52.839497,69.391747
23.964050,20.160776,30.609499,43.922554,55.060658,26.660503,52.733284,69.265625
22.730339,19.905609,31.511995,43.419098,56.025703,26.609211,52.723091,69.327904
22.375372,19.835575,31.828056,43.289364,56.348137,26.587036,52.708633,69.397362
21.960705,19.714991,32.172920,43.171928,56.654842,26.570845,52.609207,69.367371
21.040907,19.352522,32.804523,42.893181,57.196640,26.445486,52.398006,69.584846
20.225536,18.995829,33.446003,42.560032,57.579433,26.334278,52.059479,69.860519
19.889296,18.911671,33.790565,42.411045,57.771446,26.322369,51.948269,69.989685
18.868408,18.545172,34.781704,42.354790,58.726990,26.028427,50.631573,70.106956
18.618706,18.427473,34.951424,42.275059,58.990551,26.088377,50.374222,70.114265
17.973303,17.883421,35.283737,42.051086,59.316261,26.150780,50.157635,69.701279
17.781593,17.696980,35.393429,42.084995,59.225315,26.089703,50.097240,69.523232
17.625774,17.500500,35.488476,42.091316,59.259205,26.038038,50.000286,69.442551
17.351648,17.130268,35.470428,42.010544,59.478733,25.915747,49.854378,69.517967
16.986071,16.443180,34.831512,41.452007,59.969296,25.538340,49.548439,69.334389
16.733471,16.058863,34.460838,41.078316,60.268608,25.384056,49.491104,69.303818
16.109816,15.031262,33.551350,40.210396,60.963696,24.954803,49.483253,69.799614
15.767662,14.511868,33.106285,39.466518,61.456642,24.722723,49.395149,70.337173
15.348659,13.800257,32.524986,38.380978,62.449837,24.500843,49.350761,70.622375
15.260085,13.608763,32.393890,38.168003,62.767788,24.408516,49.372620,70.696014
15.165766,13.458850,32.273273,37.918457,63.036926,24.300415,49.330490,70.741127
14.853602,12.979044,32.119675,37.267559,63.562962,23.801407,48.903671,71.289215
14.742557,12.808433,31.994995,37.097092,63.764843,23.747499,48.707973,71.296928
14.540802,12.503998,31.808403,36.745853,64.127129,23.671473,48.367870,71.032936
14.427489,12.111072,31.386345,36.023842,64.433220,23.496473,47.880989,71.098656
14.435581,12.012304,31.212124,35.769619,64.418983,23.385315,47.671711,71.189949
14.520086,11.923983,30.241478,34.756107,64.751610,23.228403,47.254456,72.009949
14.656312,12.024428,28.946323,34.021389,65.110359,23.180689,46.665306,72.264114
14.787089,12.142268,27.641552,33.352283,65.316231,23.078558,45.873634,72.320305
14.910780,12.382093,25.775101,32.079391,64.799622,22.904451,44.926949,72.054306
14.943756,12.406362,25.261335,31.641951,64.596947,22.834225,44.633072,71.957726
15.020529,12.396473,24.754290,31.252911,64.255821,22.615360,44.415981,71.876747
15.194748,12.286072,23.133705,30.246885,63.042580,21.942545,43.496792,71.169106
15.243863,12.212142,22.678514,29.935150,62.437626,21.777363,43.151909,70.950020
15.293610,12.165020,22.292625,29.631962,61.735386,21.599430,42.806419,70.682594
15.527966,11.989247,21.271862,28.164722,59.409653,20.872833,41.258858,69.747047
15.592863,11.966293,20.968033,27.709551,58.936234,20.692711,40.775032,69.403389
15.594930,11.907077,20.462551,26.756020,58.118198,20.382772,40.165455,68.923866
15.560154,11.878959,20.206835,26.334719,57.838257,20.305449,39.952484,68.628242
15.565533,11.855742,19.886061,25.996790,57.775135,20.234308,39.760307,68.358894
15.395222,11.776050,19.038504,25.168356,58.021908,19.963234,39.117535,67.455864
15.326201,11.705255,18.792309,24.740803,58.202351,19.852230,38.907368,67.180496
15.226669,11.601392,18.531454,24.214865,58.396732,19.769001,38.746304,67.083412
14.927500,11.347864,17.819069,22.953194,58.751373,19.563093,38.066383,66.638794
14.777599,11.257381,17.434080,22.285110,58.907173,19.136841,37.166550,66.479263
14.644683,11.172512,17.050735,21.591759,58.932076,18.727209,36.186813,66.194412
14.563721,11.142199,16.914324,21.243708,58.818398,18.510807,35.749886,66.063141
14.361282,11.077360,16.673349,20.463659,58.373051,18.172499,34.900887,65.945930
14.165122,10.956697,16.385866,19.333075,57.424179,17.826788,33.760727,66.064194
14.108576,10.911144,16.284040,18.977577,57.159161,17.695978,33.403782,66.024963
14.065117,10.852973,16.192942,18.600609,56.980797,17.567318,33.044743,65.893600
13.936317,10.762221,15.934795,17.858812,56.396385,17.286074,32.350594,65.483620
13.778228,10.720418,15.764748,17.114000,55.648746,17.052046,31.536352,64.841652
13.576077,10.671241,15.755508,16.338461,54.902035,16.772102,30.645308,64.386963
13.137648,10.565200,15.382582,14.485653,52.876587,16.395897,29.206921,63.952030
13.007108,10.562099,15.264455,14.025438,52.190193,16.290646,28.889788,63.750053
12.715013,10.518826,14.838490,12.721301,50.339558,16.060158,28.064188,63.295345
12.603422,10.534792,14.722038,12.346774,50.009968,16.010807,27.925714,63.247688
12.454267,10.549480,14.667385,12.037274,49.706730,15.979329,27.799675,63.238022
12.093510,10.565947,14.605534,11.533739,49.381516,15.919113,27.498255,62.991970
11.923271,10.562342,14.592804,11.323959,49.310871,15.849438,27.278862,62.841972
11.346457,10.331983,14.535372,10.748616,48.949867,15.608099,26.820024,62.038929
10.758093,9.901734,14.504559,10.253460,48.483074,15.385250,26.560308,61.216541
