3.896555,14.370107,2.755649,1.627330,9.109563,11.463268,16.664692,44.156933
3.928244,13.983677,3.367990,1.665605,9.021891,11.113900,16.760569,43.959370
3.893765,13.698453,3.831755,1.706870,8.988983,10.923820,17.125443,43.586887
3.892388,13.543623,4.064210,1.747670,9.115269,10.862638,17.288353,43.603439
3.915847,13.545074,4.163066,1.768046,9.171215,10.852730,17.352530,43.712605
3.921011,13.571738,4.337699,1.804042,9.282027,10.756160,17.402998,43.719494
3.908002,13.589231,4.414689,1.818407,9.321767,10.625771,17.416622,43.547455
3.849542,13.696477,4.580181,1.854972,9.263891,10.143797,17.399387,43.267551
3.848673,13.686246,4.663732,1.860780,9.195397,9.860114,17.436131,43.619308
3.874828,13.697158,4.898095,1.829418,9.483442,9.532852,17.551794,44.214462
3.907732,13.886663,5.103181,1.812467,9.795798,9.458133,17.500465,44.388233
3.932663,14.008607,5.201339,1.804993,9.985130,9.421787,17.456957,44.340935
3.986461,14.307196,5.374739,1.792675,10.279835,9.264331,17.376961,44.150352
4.015069,14.462636,5.451184,1.787667,10.340217,9.141615,17.353352,44.113434
4.098723,14.870374,5.527979,1.756017,10.506940,8.776092,17.245775,44.009495
4.181480,15.068205,5.533448,1.725903,10.607106,8.571203,17.329975,44.017204
4.225245,15.132051,5.569993,1.694525,10.622125,8.494843,17.345123,44.039959
4.260689,15.153475,5.603616,1.665656,10.628258,8.419825,17.354242,44.023998
4.331939,15.043065,5.831346,1.571489,10.615177,8.037472,17.371416,44.064575
4.353686,14.939167,5.948871,1.534947,10.980941,7.874262,17.314735,43.751251
4.382533,14.692708,6.051025,1.504015,11.331642,7.739480,17.193253,43.067528
4.365301,14.448824,6.137496,1.472649,11.630050,7.628050,17.001175,42.583809
4.342365,14.333081,6.154573,1.441712,11.761862,7.590410,16.907774,42.389999
4.303720,14.213376,6.184740,1.399029,11.994710,7.519666,16.675890,42.464333
4.291293,14.213509,6.198040,1.379969,12.047447,7.487871,16.561180,42.638058
4.230753,14.269833,6.379579,1.314087,11.874790,7.444305,16.283583,43.018532
4.247951,14.339435,6.536675,1.306334,11.844867,7.422343,16.060974,43.542774
4.254180,14.328271,6.728280,1.277445,11.858130,7.378290,15.888862,44.821686
4.226965,14.303905,6.782218,1.273914,11.846173,7.357582,15.879753,45.293713
4.183683,14.163267,6.877501,1.267675,11.820447,7.352624,15.824615,46.143364
4.205452,13.944470,6.931262,1.255559,11.779727,7.393247,15.766394,46.768173
4.263844,13.872804,6.849078,1.232537,11.745257,7.497554,15.604811,47.158047
4.302371,13.891424,6.681191,1.199238,11.716080,7.610509,15.473638,47.336235
4.337863,13.876197,6.356988,1.160324,11.692996,7.708923,15.419742,47.496941
4.389672,13.910952,6.018776,1.127384,11.674940,7.790319,15.367845,47.667046
4.428862,13.975245,5.711899,1.080038,11.653845,7.848868,15.101049,47.782181
4.465818,13.819464,5.203889,0.982641,11.411822,7.858840,14.865427,47.655861
4.489461,13.713774,5.032044,0.968807,11.288934,7.844733,14.746338,47.662804
4.522495,13.645890,4.908345,0.958815,11.158631,7.820043,14.640687,47.461327
4.532258,13.616241,4.853090,0.954409,11.098628,7.803095,14.593279,47.269890
4.535054,13.589770,4.800145,0.950356,11.043423,7.787892,14.523734,46.993458
4.556054,13.623559,4.673649,0.945607,10.881711,7.730769,14.308152,46.511181
4.576394,13.611038,4.593131,0.943512,10.654733,7.691795,14.286328,46.445023
4.601527,13.533738,4.361638,0.939813,10.253771,7.563309,14.304171,46.375904
4.563120,12.976736,4.034591,0.935301,9.504345,7.358065,14.379994,46.215542
4.530961,12.587102,3.869590,0.931167,9.123922,7.241979,14.433489,46.189102
4.504125,12.259542,3.754593,0.927667,8.773661,7.146619,14.476009,46.209648
4.466054,11.900619,3.657250,0.924704,8.439846,7.053812,14.345833,46.420933
4.449735,11.938545,3.590232,0.922196,8.178586,6.969131,14.349944,46.657394
4.437645,12.027250,3.544330,0.921091,8.134974,6.919552,14.491312,46.763931
4.444735,12.098117,3.510200,0.920073,8.185199,6.916799,14.673806,46.818821
4.460108,12.161732,3.458797,0.919137,8.231408,6.914266,14.846606,46.869457
4.488304,12.400702,3.225980,0.924216,8.338389,6.834312,15.341461,47.123955
4.474283,12.529971,3.118786,0.962529,8.149834,6.702946,15.600073,47.314938
4.492037,12.763167,3.030400,1.018690,7.908860,6.527696,15.951426,47.632977
4.505184,12.817771,3.005518,1.032165,7.840522,6.475083,16.039955,47.667336
4.533311,12.884624,2.961564,1.043496,7.719804,6.387532,16.263157,47.388775
4.619669,12.977585,3.153182,1.059008,7.542837,6.229511,16.659201,46.957077
4.715798,13.032228,3.374823,1.038327,7.431579,6.071669,16.879498,46.749329
4.733553,13.101564,3.490807,1.015034,7.336596,6.001812,16.999945,46.442764
4.790120,13.373179,3.786025,0.955746,7.065979,5.760049,17.192610,45.302288
4.863289,13.545753,3.945593,0.914866,6.877072,5.592834,17.217997,44.764553
4.908423,13.629348,4.015941,0.896843,6.801860,5.509775,17.238033,44.552174
5.048594,13.943790,4.319963,0.826175,6.652885,5.251755,17.324911,43.912888
5.068367,14.004004,4.359149,0.815244,6.655033,5.215027,17.340748,43.803593
5.128804,14.110372,4.487609,0.795933,6.657211,5.216624,17.520378,43.844196
5.189493,14.120275,4.608531,0.779587,6.657570,5.243518,17.707003,43.777676
5.245033,14.127591,4.671134,0.772381,6.657728,5.257629,17.793242,43.721272
5.387020,14.404964,4.830478,0.754039,6.675354,5.294157,17.902361,43.366085
5.405928,14.675993,4.916605,0.730953,6.622249,5.323674,17.879084,43.121838
5.414528,14.826358,4.964221,0.713528,6.614446,5.422954,17.851896,42.837437
5.413055,14.867482,4.973094,0.704174,6.650650,5.541977,17.826273,42.787956
5.464107,14.913634,4.986652,0.687649,7.103675,5.800086,17.807959,43.082516
5.468379,14.870854,5.007844,0.721683,7.912240,6.446513,18.053270,43.171814
5.499247,14.880670,5.042342,0.744017,8.406067,6.667590,18.033478,42.968079
5.593415,14.881815,5.095716,0.762921,8.897195,6.881870,18.093287,42.796642
5.697269,14.876139,5.129668,0.771256,9.141743,6.987491,18.102976,42.696228
5.819210,14.863923,5.155353,0.790991,9.391444,7.101449,18.166622,42.609333
6.432899,14.853814,5.201118,0.855364,10.205934,7.481057,18.844805,42.402576
6.702305,14.795166,5.187894,0.914632,10.563210,7.684366,19.161924,42.690678
7.225654,14.288496,5.129476,1.039322,10.720334,7.904480,19.009085,43.370159
7.606197,13.975259,5.087967,1.106718,10.652998,8.010664,18.837456,43.707027
7.812530,13.803178,5.069667,1.132545,10.623312,8.097429,18.836248,43.876186
8.307867,13.533750,5.037340,1.163944,10.276530,8.302610,18.851929,44.239819
8.971413,13.293399,4.940552,1.241648,10.265396,8.524001,18.909342,44.548637
9.721766,13.125949,4.862536,1.289981,10.298379,8.724620,19.004259,45.176674
10.066192,13.065056,4.828141,1.311289,10.316033,8.811656,19.072779,45.511993
10.739091,12.949987,4.767381,1.348931,10.357806,9.015822,19.188934,46.033455
11.374022,12.688736,4.593666,1.384504,10.425003,9.216835,19.306622,46.395161
11.868778,12.399780,4.160808,1.418029,10.500775,9.471057,19.456978,46.522415
12.079579,12.241651,3.937398,1.432809,10.528980,9.585053,19.516550,46.691200
12.612866,11.864790,3.541775,1.458918,10.708084,9.830988,19.585543,47.431278
13.098742,11.533937,3.206887,1.481019,10.965577,10.185110,19.694942,48.472034
13.312896,11.376685,3.059247,1.491644,11.079096,10.346231,19.758619,48.927753
13.970488,11.028663,2.676841,1.538668,11.433304,10.691999,19.987041,50.112034
14.371545,10.827972,2.462041,1.575083,11.572979,10.813783,20.202940,50.524494
14.743325,10.599095,2.292853,1.631689,11.741395,10.981815,20.412148,51.120945
14.912129,10.519737,2.224319,1.672464,11.834058,11.060353,20.510056,51.371002
15.301589,10.501350,1.996623,1.863085,12.069916,11.232126,20.697748,51.808819
15.647451,10.568561,1.798296,2.058214,12.522126,11.480322,21.033274,52.398369
15.870901,10.415985,1.691098,2.166783,12.842247,11.628815,21.282478,53.051071
16.019228,10.333863,1.643838,2.211509,12.983377,11.679835,21.397963,53.477394
16.303438,10.240313,1.560353,2.278404,13.327981,11.771192,21.637381,54.223396
16.482859,10.235434,1.523547,2.302088,13.463603,11.770770,21.760599,54.503189
16.926029,10.230497,1.429864,2.368306,13.357446,11.654186,22.333851,54.689018
17.187243,10.233276,1.379228,2.382592,13.153326,11.544887,22.696901,54.724098
17.344215,10.231037,1.356904,2.377920,13.063337,11.483210,22.955956,54.907063
17.813324,10.207461,1.233639,2.362681,12.585676,11.256281,23.682770,56.402100
17.891472,10.197171,1.152258,2.356768,12.481624,11.141004,23.966043,57.340744
17.903629,10.234191,1.111387,2.342094,12.439129,11.105957,24.039240,57.833305
17.847521,10.291816,1.042335,2.335704,12.364061,11.059832,24.076763,58.859077
17.806568,10.373184,1.011892,2.342247,12.330968,11.028606,24.076582,59.255486
17.770945,10.469330,1.009906,2.358550,12.256007,10.950391,24.148350,59.558392
17.565023,10.516275,1.100455,2.545164,12.120555,10.943076,24.283627,59.819099
17.346512,10.549229,1.233061,2.667756,12.156723,10.991014,24.303400,59.904278
17.030052,10.612123,1.348382,2.854892,12.187340,11.017593,24.175714,60.071308
16.846127,10.638290,1.420547,2.949197,12.244045,11.019835,24.066040,60.158592
16.355087,10.700049,1.548029,3.116724,12.263194,10.997821,23.908939,60.255920
15.364065,10.862863,1.734129,3.291564,12.304016,11.041623,23.855288,60.337952
14.793063,10.969727,1.973786,3.418517,12.445990,11.114620,23.901327,60.521271
14.496303,11.054714,2.201908,3.562343,12.500232,11.142640,23.920914,60.543186
13.375395,11.318232,3.202794,4.102289,12.635122,11.119108,24.057625,60.553978
13.161054,11.368219,3.405468,4.210791,12.655283,11.101658,24.163549,60.513748
12.902466,11.442707,3.603264,4.310617,12.765558,11.133466,24.266676,60.335098
11.723451,11.646051,4.378843,5.261974,14.694836,11.429386,24.619801,58.112911
11.481141,11.687382,4.562105,5.452353,15.328560,11.521704,24.654955,57.634315
10.903101,11.870848,5.484854,6.450154,17.304691,11.782904,24.921278,56.905029
10.573251,11.862316,6.140844,7.001228,18.797874,11.889623,25.298214,56.804432
10.278276,11.809397,6.726547,7.440729,19.991396,11.937887,25.576216,56.892693
10.146189,11.752412,6.973983,7.613262,20.581646,11.962203,25.656340,56.914249
9.879041,11.611410,7.391493,7.890303,21.641022,12.031693,25.817072,56.697468
9.616780,11.456097,7.784448,8.114686,22.263416,12.040050,25.977045,56.692284
9.498546,11.403345,7.986423,8.237840,22.537809,12.024533,26.020824,56.646549
9.197797,11.246549,8.343222,8.513229,23.304190,12.033838,26.185917,56.231102
8.762198,11.040925,8.808210,8.951077,24.633842,12.104917,26.439949,55.677765
8.453417,10.893883,9.062341,9.221959,25.706953,12.149635,26.446486,55.228600
8.168216,10.735146,9.356668,9.509288,26.630493,12.172497,26.323572,54.846397
7.898580,10.631328,9.661364,9.752506,27.851606,12.325554,26.208878,54.110081
7.593122,10.532834,9.992991,9.986876,29.190639,12.478446,26.190062,53.299877
7.375361,10.512512,10.390311,10.297369,30.733643,12.638147,26.253115,52.747482
7.295255,10.547190,10.581738,10.449317,31.355272,12.706990,26.268389,52.601959
6.997343,10.616879,11.258152,11.055155,33.681068,13.223521,26.586206,51.836071
6.856290,10.667012,11.750968,11.365512,35.453873,13.597060,26.779453,51.351418
6.855691,10.678232,12.358854,11.782885,38.085297,14.205197,27.179800,50.861485
6.848942,10.667831,12.491168,11.860567,39.127369,14.355299,27.364841,50.653828
6.849414,10.589159,12.772737,12.050647,41.791203,14.720059,27.985783,50.258495
6.863145,10.557048,12.841599,12.075485,42.564629,14.826402,28.205309,50.252300
6.961418,10.524419,13.052768,12.119677,44.587185,15.207128,28.714951,50.378353
7.059156,10.386585,13.221805,12.153514,46.061348,15.817237,29.083303,50.533203
7.145764,10.210432,13.389400,12.208261,47.318340,16.375444,29.267290,50.523453
7.170055,10.160703,13.431770,12.242415,47.937939,16.626308,29.287291,50.340611
7.237412,9.959909,13.196890,12.166714,50.314835,17.409370,29.508774,50.051598
7.357232,9.794060,12.750821,11.960802,52.918568,18.351574,29.713360,49.453976
7.364300,9.741543,12.642323,11.923539,53.388348,18.512838,29.731907,49.297718
7.381495,9.771801,12.450657,11.637846,53.748772,18.695965,29.759789,49.027420
7.387481,9.817839,12.366158,11.504466,53.817043,18.764153,29.772701,48.933411
7.404335,9.831315,12.216889,11.226201,53.753288,18.972389,29.892633,48.689075
7.428026,9.807663,12.149760,11.087635,53.561901,19.058447,30.021597,48.551014
7.396924,9.741477,11.869242,10.505252,53.082764,19.169409,30.153126,48.168995
7.361244,9.760481,11.578403,9.970356,52.319130,19.303175,29.995300,47.629154
7.345350,9.817127,11.253410,9.517733,51.598625,19.442959,29.804996,46.958542
7.398350,9.832524,10.818219,8.960975,50.914074,19.615442,29.631317,46.744984
7.419311,9.827534,10.579173,8.669728,50.753632,19.738182,29.471743,46.823982
7.434628,9.829036,10.434246,8.544581,50.901970,19.812168,29.412027,47.018925
7.447175,9.829197,10.166910,8.272469,51.095524,19.939358,29.368183,47.363758
7.494626,9.846101,9.972223,8.056587,50.999718,20.098597,29.248856,47.401516
7.506863,9.855193,9.893476,7.908309,50.755737,20.229658,29.174524,47.517220
7.541014,9.980758,9.693039,7.571676,49.935356,20.566780,29.048815,47.882019
7.581866,10.041995,9.614223,7.461970,49.665173,20.682865,29.073997,48.210415
7.619450,10.130128,9.505492,7.361166,49.503155,20.795946,29.095129,48.538692
7.696885,10.302448,9.183041,7.120672,49.004601,20.971333,28.877234,49.388210
7.753318,10.426721,8.901663,6.903057,48.362755,21.172829,28.721073,49.352253
7.872943,10.475215,8.526378,6.464715,47.272453,21.386856,28.366411,48.974716
7.905592,10.511950,8.394015,6.288596,46.710640,21.370037,28.283840,48.801670
7.931250,10.577171,8.243108,6.126558,46.124390,21.342760,28.142071,48.635296
7.905673,10.603198,7.913405,5.836555,44.733074,21.271412,27.797598,48.253860
7.820291,10.594484,7.741105,5.678342,44.099201,21.223967,27.566956,47.985970
7.752152,10.588717,7.582582,5.533283,43.427429,21.180319,27.387074,47.871666
7.638297,10.616290,7.150013,5.044802,41.217724,21.051071,26.780907,48.183636
7.610355,10.702543,6.913146,4.774230,40.138065,20.993408,26.409178,48.371391
7.603753,10.768513,6.757627,4.539176,39.178387,20.922777,26.078171,48.406040
7.589156,10.882221,6.577167,4.272076,38.252697,20.715342,25.785614,48.450829
7.582915,10.932966,6.499750,4.168089,37.698589,20.458864,25.556664,48.502426
7.523927,11.034617,6.408510,3.892606,36.224003,19.858635,25.112247,48.342701
7.500013,11.027278,6.381212,3.798980,35.809311,19.711685,24.988169,48.263977
7.480693,11.013177,6.335239,3.692814,35.254250,19.543568,24.789618,48.139114
7.374086,10.905107,6.151986,3.421374,33.363960,18.971401,24.151548,48.145931
7.308496,10.845422,6.043947,3.273169,32.324158,18.568346,23.851648,48.236084
7.295138,10.617252,5.918997,3.019115,30.591810,17.870676,23.630764,48.403175
7.292338,10.532743,5.926474,2.969372,30.086149,17.666010,23.648861,48.449982
7.289762,10.454993,5.933352,2.923606,29.575499,17.437349,23.696211,48.508354
7.306879,10.322229,5.883532,2.826461,28.540178,16.974813,23.497908,48.845737
7.420633,10.240087,5.531335,2.685096,27.201757,16.392027,23.303888,49.562927
7.448425,10.250427,5.302711,2.606900,26.459196,15.983121,23.102053,49.757530
7.532146,10.297379,5.216948,2.574695,26.042599,15.792030,23.009644,49.843472
7.662082,10.358818,5.102157,2.512874,25.261606,15.430025,22.894747,49.655373
7.780674,10.444430,5.006933,2.456008,24.303938,15.050066,22.814489,49.464191
8.140037,10.659557,5.013921,2.356953,22.305387,14.317926,22.969723,48.857899
8.270683,10.798700,5.012247,2.344808,21.448105,13.947068,23.087505,48.667553
8.325382,10.831479,4.997423,2.339454,21.063400,13.701538,23.131836,48.591824
8.468032,10.892195,4.977199,2.317465,20.456709,13.252145,23.158098,48.214020
8.584167,11.072818,4.974365,2.273938,20.076475,12.890106,23.098726,47.627914
8.722795,11.229843,5.006927,2.252496,19.320404,12.590068,23.131954,47.120575
8.855672,11.473471,5.118306,2.245750,18.481066,12.219738,23.351528,46.594215
8.956195,11.659616,5.215677,2.276401,17.630486,11.805863,23.484650,46.172691
8.992008,11.789566,5.220210,2.302346,16.793106,11.383480,23.592524,45.710926
9.040718,11.765041,5.195324,2.309945,16.382706,11.175635,23.656546,45.728809
9.306247,11.662718,5.090279,2.327420,15.338104,10.627210,23.627565,45.728302
9.538318,11.658175,5.040970,2.334578,14.773488,10.215110,23.573942,45.652611
9.677428,11.705662,5.011642,2.335444,14.208538,9.853566,23.573313,45.189056
9.745143,11.730008,4.998712,2.333803,13.934534,9.672785,23.543999,44.801624
9.812819,11.750412,4.984742,2.337736,13.169034,9.373541,23.458120,44.229572
9.837813,11.757421,5.031954,2.356980,12.963862,9.285607,23.416451,43.976086
9.859638,11.703024,5.136215,2.428690,12.419956,9.046802,23.417856,43.189575
9.850746,11.630947,5.145644,2.448020,12.125034,8.947768,23.625170,42.833576
9.803453,11.686296,4.960209,2.416245,11.344452,8.529609,24.027393,42.761028
9.846055,11.925961,4.847658,2.387456,10.794642,8.241214,24.486803,43.397186
9.901715,12.054136,4.798038,2.373812,10.548048,8.127158,24.661030,43.689232
10.080862,12.303517,4.710382,2.349709,10.110025,7.938146,25.103807,44.060230
10.147019,12.435706,4.671739,2.339082,9.915761,7.860792,25.286373,44.212029
10.238779,12.664635,4.603472,2.320311,9.572589,7.734913,25.533424,44.788204
10.279705,12.827394,4.526323,2.305397,9.283188,7.726930,25.553169,45.351891
10.314180,12.954019,4.411250,2.284805,9.038216,7.795718,25.528481,45.963867
10.342583,13.002247,4.363978,2.276158,8.942266,7.836055,25.525488,46.396225
10.275718,13.323336,4.224905,2.247954,8.648048,8.085959,25.632101,47.796223
10.220824,13.366683,4.149520,2.239728,8.533876,8.217775,25.771660,48.289253
10.165439,13.360481,4.134126,2.240810,8.560017,8.327764,25.842625,48.467239
10.036777,13.423513,4.058627,2.233166,8.606194,8.577784,25.883163,48.698406
9.978369,13.453494,4.014594,2.229796,8.626552,8.677435,25.909306,48.801792
9.867585,13.464871,3.939930,2.227710,8.662516,8.881509,25.911606,49.175823
9.714070,13.431931,3.825671,2.229503,8.735892,9.021872,25.696316,49.195530
9.542620,13.353623,3.659930,2.191509,8.806294,9.128595,25.460785,49.222088
9.453223,13.273924,3.583487,2.155243,8.844740,9.185865,25.399897,49.243069
9.229414,13.093294,3.424025,2.118654,8.974893,9.557589,25.280411,49.649006
9.225597,12.851851,3.381520,2.106810,8.898203,9.782813,25.277971,50.166737
9.243417,12.531776,3.328647,2.046199,8.789598,10.032634,25.345318,50.694321
9.240736,12.386717,3.273515,2.019478,8.760904,10.158469,25.316790,51.014740
9.444683,11.979349,3.046422,1.905218,8.616674,10.430049,24.831322,52.190388
9.610971,11.814356,2.921703,1.820864,8.516933,10.577209,24.553921,53.068996
9.682502,11.735356,2.872257,1.783675,8.472960,10.666064,24.409039,53.376911
9.774967,11.625933,2.773332,1.689017,8.443995,10.922643,24.020298,54.287571
9.776240,11.577452,2.748368,1.655570,8.522812,11.047426,23.941854,54.610088
9.692087,11.458273,2.782759,1.619262,9.022743,11.549945,23.636398,55.443962
9.617818,11.378592,2.862607,1.617231,9.435850,11.870055,23.382401,55.894135
9.560849,11.328341,2.929845,1.661972,9.835766,12.023063,23.200630,56.487461
9.801166,11.517406,2.869171,1.695627,9.979360,12.091345,23.176208,57.396408
9.930140,11.594910,2.831423,1.701249,10.042665,12.114021,23.111320,57.743084
10.060274,11.687639,2.796695,1.706421,10.100909,12.125753,23.061996,58.124832
10.309315,11.834672,2.735344,1.715559,10.240205,12.190390,22.883076,58.808144
10.527467,11.946580,2.683413,1.723294,10.514193,12.337542,22.617950,59.550499
10.656435,11.836372,2.649894,1.731693,10.643764,12.462335,22.156935,59.888786
10.697774,11.767616,2.615239,1.785285,10.819722,12.597774,21.277464,60.504131
10.705793,11.768784,2.632695,1.844077,10.969457,12.688072,20.868944,60.721115
10.711650,11.769299,2.665059,1.869996,11.048099,12.727734,20.715147,60.706268
10.751921,11.810871,2.722232,1.914807,11.193578,12.719880,20.444597,60.682095
10.834112,11.828394,2.747437,1.934563,11.261379,12.666693,20.311945,60.630909
11.291812,11.989729,2.808861,2.122850,11.501933,12.466420,19.706053,59.556068
11.404491,11.954842,2.810640,2.215512,11.563104,12.425222,19.657099,59.042934
11.595093,12.054215,2.836147,2.368225,11.825296,12.330214,19.589531,58.060848
11.772143,12.153605,2.891339,2.471957,12.148035,12.155542,19.519287,57.485123
11.911755,12.046050,3.378883,2.756048,12.829558,12.032472,19.437819,56.931679
11.943280,12.061120,3.520682,2.879330,13.157491,12.071651,19.403206,56.690212
12.020529,12.220958,3.780847,3.109468,13.641508,12.156725,19.351952,56.523899
12.063917,12.306912,3.895546,3.216850,13.834186,12.219181,19.298944,56.500389
12.112794,12.480154,4.098163,3.497017,14.165901,12.314507,19.165966,56.388805
12.153685,12.722018,4.293992,3.761829,14.385273,12.257962,19.122915,56.242737
12.206310,12.828474,4.513364,3.913100,14.701526,12.295219,19.141333,56.239697
12.061336,13.087808,5.040926,4.320932,16.569302,12.619745,19.207832,56.051205
11.917064,13.198417,5.362477,4.571727,17.872099,12.788963,19.142138,55.857056
11.337530,13.300313,5.984911,5.026169,21.115128,13.414906,19.297619,55.113953
11.068579,13.554670,6.296221,5.245636,22.823229,13.774302,19.479515,54.612896
10.822639,13.743291,6.546327,5.541049,24.643349,14.203955,19.621344,54.187946
10.715357,13.817823,6.654016,5.671287,25.452446,14.411677,19.738016,53.985638
10.530503,14.087718,6.832971,5.910170,26.741955,14.653077,19.993889,53.730881
10.423190,14.323728,6.971281,6.085663,27.672209,14.730306,20.310835,53.644508
10.356892,14.616802,7.054901,6.228765,28.320663,14.820729,20.572126,53.582516
10.299158,14.873604,7.167210,6.299295,29.025785,15.015593,20.782639,53.404613
9.970695,14.828967,7.381165,6.329340,29.720839,15.245021,21.183302,52.811573
9.620819,14.766915,7.627953,6.390889,30.452814,15.479981,21.526024,52.516685
9.156607,14.634717,7.928952,6.488039,31.202324,15.687200,21.966967,52.003658
8.887814,14.551872,8.168598,6.654494,31.656452,15.802216,22.238249,51.413734
8.630960,14.448181,8.443662,6.785861,32.419861,16.125275,22.498655,50.727825
8.409011,14.224686,8.719383,6.898030,33.378746,16.423120,22.829428,49.937363
8.313972,14.081229,8.840940,6.926825,34.013752,16.604700,22.933107,49.532444
8.204690,13.971457,8.952778,6.953317,34.566582,16.753609,23.027510,49.144894
8.080623,13.811870,9.081142,7.043686,35.632854,17.025383,23.258938,48.428604
7.981731,13.786550,9.184742,7.261589,36.926952,17.381002,23.513496,47.850845
7.858448,13.772152,9.236836,7.392160,37.539394,17.635525,23.684019,47.549950
7.676384,13.736961,9.287244,7.523109,38.228481,17.868603,23.845270,47.331188
7.199351,13.583112,9.415546,7.749227,40.482086,18.453386,24.366480,47.246140
7.037782,13.528925,9.451665,7.786760,41.261913,18.641851,24.433144,47.273239
6.889132,13.444562,9.486759,7.821292,42.026478,18.856194,24.458036,47.373608
6.517954,13.206888,9.479743,7.905762,43.662323,19.454321,24.580027,47.391392
6.296647,13.109134,9.265597,7.918165,44.432095,19.719158,24.589939,47.183899
6.182198,13.077153,9.171187,7.893236,44.959709,19.821087,24.611359,47.261883
5.856982,12.834968,8.634158,7.659267,46.516308,20.072847,24.801922,47.472546
5.730414,12.696088,8.421327,7.611728,47.121014,20.112272,24.839018,47.765629
5.691597,12.666557,8.345251,7.626383,47.434582,20.151915,24.829273,47.980316
5.633011,12.642150,8.160386,7.621543,48.170063,20.266508,24.747829,48.273956
5.514481,12.637456,7.747055,7.569095,48.788784,20.449841,24.604364,48.235916
5.471694,12.675112,7.584988,7.561864,48.841743,20.450033,24.628073,48.297935
5.379744,12.882355,7.136080,7.546441,48.554230,20.323204,24.841791,48.337811
5.351622,13.046898,6.872562,7.576232,48.044685,20.153658,24.998253,48.388428
5.339612,13.131524,6.718240,7.574934,47.560684,20.055550,24.991657,48.346283
5.314573,13.112974,6.547642,7.558910,46.948891,19.899288,25.058161,48.279106
5.246816,12.810933,5.979708,7.419752,44.587341,19.178371,25.745815,48.328335
5.257609,12.748680,5.888070,7.368753,43.936398,18.981462,25.882755,48.281597
5.231674,12.415838,5.645096,7.272800,42.279533,18.548534,26.180304,47.911160
5.224020,12.235563,5.536664,7.228964,41.379284,18.501446,26.309536,47.570015
5.211781,12.102571,5.501747,7.209639,41.150391,18.503096,26.362679,47.314411
5.181735,11.807765,5.284735,7.186496,40.602669,18.576529,26.395782,46.511490
5.158759,11.632030,5.036948,7.163146,40.152691,18.629715,26.307674,46.132179
5.137405,11.556268,4.915713,7.143838,39.985043,18.667795,26.302814,45.793343
5.142009,11.456267,4.712980,7.098233,39.735538,18.824175,26.310474,45.274349
5.189789,11.543267,4.519207,6.993221,39.665958,18.950378,26.515150,44.854233
5.390298,11.708110,4.015967,6.731927,39.246914,18.868097,26.795374,44.292267
5.526444,11.935984,3.932859,6.621239,38.562206,18.858664,26.828569,44.036392
5.587831,12.071639,3.897704,6.569398,38.168663,18.866480,26.873901,43.881901
5.647823,12.324221,3.835894,6.178440,36.528103,18.691383,26.789856,43.500759
5.664996,12.348969,3.816024,6.031157,36.063259,18.529175,26.679756,43.705345
5.682587,12.371738,3.791317,5.884832,35.509968,18.374214,26.591944,43.877674
5.769746,12.432970,3.831505,5.611547,34.328934,18.079584,26.343227,43.903557
5.887916,12.504227,3.865522,5.352476,33.070129,17.884054,26.269005,43.865253
6.075869,12.603268,3.901534,5.022772,31.273909,17.740650,26.458029,44.047745
6.134587,12.618413,3.911465,4.933151,30.732834,17.642004,26.531183,44.209606
6.263248,12.600426,3.929011,4.774835,29.777008,17.490732,26.751245,44.559639
6.394300,12.570629,4.001782,4.659751,28.560034,17.303822,26.894381,44.421696
6.512174,12.524406,4.078914,4.570677,27.378218,17.120777,27.093904,44.366196
6.569384,12.566351,4.112919,4.517665,26.813715,17.067719,27.233925,44.219025
6.646574,12.617926,4.193124,4.384171,25.974028,17.016237,27.495298,43.837925
6.678020,12.595481,4.245454,4.140051,25.511738,16.938028,27.900799,43.486057
6.736922,12.443083,4.281114,3.932381,24.722445,16.717585,28.733994,43.105091
6.930303,12.191092,4.282663,3.451025,22.985191,15.918046,30.169563,43.003731
6.983470,12.118947,4.279165,3.331389,22.628525,15.795647,30.440052,42.988441
7.036761,12.028244,4.275947,3.221318,22.335766,15.677909,30.783041,42.929451
7.198288,11.743309,4.267756,2.878377,21.650812,15.339734,31.789925,43.157803
7.249019,11.646042,4.265450,2.781836,21.455654,15.268375,31.961884,43.252220
7.307405,11.472329,4.263526,2.595910,21.289993,15.223612,32.276619,43.433609
7.286758,11.305745,4.237058,2.434398,21.145473,15.176460,32.763634,43.684288
7.260464,11.276155,4.263487,2.266613,21.230867,15.191854,33.294666,44.045845
7.236076,11.299904,4.266933,2.177756,21.444557,15.241642,33.556885,44.181709
7.138779,11.264164,4.190994,2.010779,22.195839,15.163844,34.885017,44.713715
7.074108,11.209333,4.147657,1.904273,22.181656,15.068132,35.893944,44.980999
7.049387,11.177759,4.110974,1.819016,22.271252,14.900427,36.744038,45.088375
7.046203,11.160273,4.094801,1.836020,22.498964,14.833472,37.142025,45.072315
7.041474,11.139998,4.066854,1.940516,22.826885,14.753680,37.972301,45.314453
7.000980,11.028216,4.020927,2.044511,23.246073,14.818709,38.757370,45.764423
6.993892,10.920917,3.993744,2.094953,23.334393,14.834617,39.175369,46.004101
6.968973,10.747119,3.999632,2.184059,23.367920,14.862410,40.018520,46.336525
6.944967,10.731374,4.016495,2.223344,23.324001,14.916517,40.475723,46.507648
6.854354,10.744329,3.880285,2.333516,23.216492,14.914555,41.987392,47.510422
6.788812,10.669516,3.752048,2.415217,23.524031,14.926762,42.850353,48.257835
6.829546,10.622998,3.715363,2.489584,23.694086,15.012344,43.602543,48.907475
6.841191,10.643985,3.707681,2.573858,24.078674,15.179697,44.465454,49.126884
6.842141,10.689669,3.702492,2.646334,24.472281,15.370289,45.288265,49.293884
6.800583,10.748080,3.734427,2.722847,24.692356,15.545203,46.080193,49.462631
6.809753,10.822688,3.761460,2.787614,24.893106,15.504500,47.016560,49.617035
6.913417,10.998593,3.784343,2.854766,25.207197,15.539345,47.866570,49.663704
7.092311,11.261656,3.863501,2.907007,25.648365,15.745402,48.499828,49.805145
7.245693,11.525178,3.913376,2.941626,26.124184,15.898678,49.103374,50.171684
7.366580,11.813757,3.994406,2.961844,26.787210,16.081865,49.832882,50.717735
7.455364,12.003887,4.028625,2.971256,27.158957,16.223320,50.164040,50.934299
7.650252,12.297957,4.089072,2.955130,27.876867,16.419153,50.741497,51.274021
7.778331,12.408549,4.095586,2.920886,28.032818,16.487719,50.930283,51.361744
8.194262,12.785318,4.112164,2.823604,28.258625,16.768944,51.475185,51.502007
8.303087,12.920582,4.125650,2.828298,28.204723,16.861183,51.559357,51.562527
8.370531,13.032701,4.135666,2.832617,28.173492,16.942528,51.622066,51.501606
8.554245,13.334167,4.143801,2.939785,28.648912,17.152327,51.971794,51.435669
8.714657,13.715671,4.200698,3.112862,29.613747,17.207352,52.698078,51.320351
8.763099,13.809401,4.216135,3.174743,29.984268,17.247059,52.957359,51.365482
8.848131,13.938611,4.261326,3.256220,30.475481,17.347284,53.274513,51.427593
9.051359,14.215722,4.379961,3.433651,31.238270,17.507662,53.787632,51.257690
9.202622,14.402035,4.452703,3.527927,31.702656,17.675859,54.110535,51.205631
9.493609,14.720246,4.533999,3.694468,32.880138,18.023531,54.655704,51.128101
9.674623,14.752135,4.547223,3.783669,33.186623,18.106823,54.976688,51.261749
10.241579,14.735728,4.568243,3.978165,33.794533,18.317083,55.756645,51.753300
10.604546,14.695491,4.564110,4.088449,33.948322,18.562796,55.830647,52.170872
11.131159,14.635226,4.567924,4.209554,34.110985,18.768698,55.840115,53.077080
11.420894,14.636940,4.605584,4.125411,34.179214,18.976809,55.812187,53.780560
11.558670,14.657454,4.637961,4.069634,34.297337,19.055874,55.708733,54.063427
11.832465,14.833867,4.695158,3.955682,34.274799,19.030039,55.446930,54.460384
11.966044,14.943623,4.735631,3.900851,34.320103,18.994089,55.164143,54.609695
12.189615,15.206792,4.764203,3.803990,34.474243,18.963568,54.608189,54.886284
12.306709,15.264141,4.762532,3.780705,34.684124,18.937857,54.396492,55.008018
12.456903,15.237194,4.759580,3.739570,35.066597,18.875675,53.881622,54.788879
12.535623,15.187025,4.758279,3.710998,35.271049,18.877306,53.602070,54.666237
12.879702,15.058171,4.650073,3.649545,35.560799,18.838432,53.340424,54.397038
12.979309,15.005309,4.595348,3.643434,35.546040,18.811749,53.304546,54.445793
13.185057,14.963076,4.507797,3.630261,35.665386,18.755987,53.604961,54.438366
13.348173,14.919051,4.329044,3.617867,35.868568,18.664129,53.864803,54.366257
13.417396,14.913652,4.249875,3.608618,36.103531,18.629854,53.939121,54.376614
13.480419,14.881977,4.057902,3.576051,36.718204,18.568901,54.190464,54.471813
13.443923,14.807472,4.003860,3.561120,36.727524,18.553501,54.261826,54.627834
13.365628,14.740520,3.927010,3.547382,36.736099,18.470745,54.388393,54.729500
13.293596,14.678362,3.826497,3.522981,36.697933,18.367788,54.714371,55.022327
13.110201,14.545329,3.561849,3.485259,36.192059,18.041189,55.419308,54.970860
12.951159,14.377496,3.487260,3.491368,36.122406,17.865454,55.524014,55.072071
12.720682,14.166666,3.426795,3.517899,36.161736,17.745876,55.737209,55.193184
12.524203,14.016421,3.393632,3.536602,36.415493,17.672619,55.613647,55.432999
12.410361,13.813744,3.366541,3.496205,36.618816,17.601265,55.359722,55.868507
12.390687,13.708762,3.363181,3.469463,36.619438,17.579550,55.182686,56.023788
12.337624,13.458488,3.327245,3.291394,36.211777,17.540627,54.304214,56.141575
12.351024,13.387556,3.316462,3.236612,35.990772,17.557428,53.942268,56.276585
12.377069,13.252321,3.317313,3.139837,35.678455,17.684864,53.022785,56.374180
12.352906,12.923946,3.331044,2.944204,34.650784,17.738317,52.005783,56.828220
12.288431,12.773257,3.314830,2.887003,34.377213,17.697855,51.643749,57.054554
12.015813,12.310103,3.318506,2.851110,33.479050,17.665958,50.315018,57.593800
11.900946,12.225292,3.394905,2.936012,33.279648,17.674152,49.840897,57.535030
11.684742,12.072136,3.611183,3.252881,32.808525,17.669275,48.776360,57.566891
11.544127,12.004615,3.699479,3.410686,32.549629,17.559948,48.327477,57.609802
11.290854,11.915627,3.910974,3.682185,32.159744,17.375839,47.545727,57.527943
11.010324,11.898520,4.141396,3.932030,31.862165,17.285879,46.794140,57.309677
10.769212,11.927135,4.380659,4.288734,31.279554,17.061298,46.172146,56.892448
10.669835,11.922603,4.477811,4.460021,30.921486,16.930805,45.891602,56.771038
10.554433,11.930230,4.563277,4.617613,30.538370,16.818655,45.549271,56.534843
10.322700,11.804714,4.869177,4.923881,30.052147,16.737484,45.063675,56.174576
10.189783,11.711143,5.132463,5.059739,29.798565,16.714184,44.892086,56.121700
10.074039,11.592870,5.391372,5.184733,29.615219,16.686497,44.715351,56.113434
9.710006,11.333192,6.084149,5.506431,29.216957,16.539604,44.248211,56.496487
9.500300,11.322980,6.492742,5.672578,29.109554,16.329460,44.112785,57.175896
9.393845,11.357242,6.672875,5.739387,29.017918,16.201040,44.028439,57.499962
9.273298,11.401862,6.838606,5.800854,28.886332,16.103525,43.861053,57.785419
8.726385,11.526912,7.500112,6.003206,28.538301,15.755592,43.055965,57.992428
8.617743,11.555955,7.650006,6.039297,28.341673,15.699849,42.790333,58.035538
8.425826,11.593271,7.914799,6.099464,27.970852,15.570996,42.248379,58.218082
8.255955,11.556983,8.119363,6.153218,27.780256,15.604130,41.369862,58.306747
8.113330,11.403135,8.289351,6.199590,27.853285,15.635294,40.533844,58.192211
8.014961,11.224905,8.433241,6.253074,27.915051,15.671951,39.722660,57.883286
7.888328,11.033639,8.554950,6.310702,28.024382,15.706348,38.948517,57.165054
7.833068,10.944654,8.608542,6.355057,28.063581,15.780763,38.469234,56.859802
7.777356,10.834728,8.657848,6.391998,28.099646,15.846745,37.942970,56.768204
7.543850,10.280938,8.837579,6.703350,28.866560,16.302397,36.138103,56.642673
7.517382,10.205590,8.990391,6.794720,29.084665,16.368725,35.837341,56.577354
7.461100,10.029590,9.242322,6.987525,29.161366,16.494734,35.306389,56.389889
7.415886,9.934772,9.444960,7.279468,29.505186,16.835062,34.861282,56.123352
7.336949,9.834038,9.600011,7.531721,29.774158,17.178825,34.576485,55.831947
7.247005,9.742065,9.731256,7.776403,29.997494,17.628151,34.252701,55.458477
7.175730,9.693979,9.785423,7.884275,30.084375,17.811787,34.178474,55.454693
7.044567,9.636493,9.844715,8.089617,30.620987,18.141428,34.046326,55.590412
6.968800,9.625388,9.917215,8.180144,31.090342,18.287811,33.956627,55.471733
6.850163,9.656027,10.060036,8.378799,32.177967,18.686987,33.694561,54.995731
6.701853,9.715664,10.193158,8.456767,33.565189,19.000679,33.235615,54.265553
6.662135,9.718958,10.229993,8.501459,34.067123,19.035208,33.036995,54.105507
6.592549,9.745884,10.064914,8.185035,35.527973,19.203304,32.573582,53.383003
6.581453,9.796280,10.016466,8.068854,36.034134,19.325390,32.445438,53.105316
6.557738,9.876356,9.816765,7.768122,37.171589,19.609667,32.286217,52.554607
6.547927,9.892242,9.658919,7.545563,38.132000,19.770636,32.242886,52.291229
6.545610,9.883506,9.591211,7.467821,38.659004,19.826540,32.216782,52.178772
6.568147,9.900670,9.156096,7.266635,41.398396,20.177370,32.347179,51.788311
6.611863,9.894570,8.887485,7.222436,41.955891,20.285448,32.309845,51.680534
6.773981,9.848467,8.181274,7.147875,43.382320,20.633314,32.436058,51.144867
6.856008,9.720288,7.756760,7.113424,44.020645,20.889992,32.137596,50.410271
6.943171,9.577629,7.598490,7.139431,44.634979,21.301607,31.817108,49.672565
7.162999,9.526749,7.449670,7.149456,45.195862,21.611029,31.611769,49.463978
7.257710,9.486859,7.369899,7.148128,45.473648,21.758945,31.484472,49.386517
7.361111,9.488490,7.286841,7.146907,45.832378,21.878778,31.393705,49.362370
7.498292,9.545134,7.177325,7.166669,46.947704,22.085640,31.209490,49.194218
7.640828,9.757956,7.064536,7.184884,49.073978,22.364643,30.922649,48.862137
7.705544,9.937430,7.003572,7.192927,50.336170,22.500937,30.822277,48.887432
7.731696,10.021969,6.977015,7.197578,50.844471,22.551359,30.766605,48.960003
7.742640,10.223396,7.014849,7.198038,51.724846,22.495049,30.681870,49.035172
7.734636,10.338917,7.027511,7.198349,52.083263,22.450388,30.629429,49.046463
7.685676,10.539385,7.049877,7.179951,52.716412,22.302261,30.611729,49.220741
7.663989,10.636743,7.059738,7.162761,52.995544,22.212585,30.641394,49.082195
7.608017,10.949376,7.143392,7.142454,52.922913,21.989523,30.525696,48.484005
7.620090,11.051886,7.133590,7.060728,52.808155,21.915630,30.447851,48.406738
7.613368,11.172758,7.109743,6.989729,52.634407,21.822430,30.409752,48.395493
7.419493,11.709754,6.633010,6.443838,52.014294,21.163359,30.113762,48.011047
7.391869,11.802712,6.620785,6.355525,51.939678,21.010782,30.031931,47.901886
7.398942,11.946438,6.599188,6.168361,51.831039,20.646252,29.934193,47.894592
7.379996,12.095455,6.580907,6.018093,51.613125,20.384726,29.844940,47.744072
7.407331,12.136880,6.572848,5.963419,51.356480,20.200397,29.802059,47.596844
7.435515,12.202461,6.337140,5.806957,50.209789,19.663788,29.569094,47.698395
7.509037,12.209786,6.219589,5.697090,49.399605,19.294991,29.463028,47.671211
7.525269,12.213543,6.153307,5.648653,48.817238,19.120230,29.479681,47.499966
7.585666,12.208041,6.039875,5.496125,47.630032,18.789000,29.561234,47.666908
7.632190,12.179790,5.999065,5.158924,46.318264,18.027674,29.463593,48.308563
7.653737,12.215899,5.988273,5.094819,46.373272,17.861494,29.399845,48.386948
7.695755,12.293973,5.966918,4.974222,46.355686,17.735153,29.327459,48.476761
7.712124,12.347190,5.956405,4.919428,46.222252,17.652950,29.305857,48.554779
7.716201,12.405717,5.904889,4.650652,45.722374,17.521498,29.146753,48.996807
7.721830,12.407218,5.861283,4.403735,44.887341,17.260754,28.859089,49.486794
7.740212,12.433194,5.842058,4.289373,44.507832,17.131290,28.808483,49.611828
7.740572,12.631635,5.792172,3.960470,43.293987,16.798216,28.819187,49.816513
7.781053,12.833162,5.784750,3.752475,42.357571,16.623802,28.713619,49.932270
7.825718,13.222521,5.494092,3.794930,40.926964,16.190094,28.618050,50.285774
7.731548,13.322615,5.334865,3.918209,40.258167,15.919054,28.648113,50.229527
7.678730,13.378929,5.271833,3.979817,39.757603,15.773939,28.602985,50.189896
7.591146,13.361545,5.119291,4.066730,38.506615,15.524596,28.550117,50.096474
7.532128,13.406844,4.990551,4.140301,36.816982,15.249341,28.498304,50.078831
7.489653,13.466417,4.883710,4.202577,35.081345,14.903913,28.506710,50.026134
7.468793,13.494536,4.838215,4.230032,34.162796,14.771268,28.503832,49.998749
7.456101,13.544209,4.736992,4.294593,32.627983,14.561657,28.458195,50.042995
7.458651,13.515103,4.652142,4.326897,32.009495,14.476103,28.373795,50.051422
7.532489,13.366786,4.441938,4.398537,30.435240,14.299290,28.335171,50.079544
7.674134,13.238008,4.247785,4.470411,29.378920,14.092268,28.383919,50.573669
7.727179,13.223200,4.186653,4.472154,29.127872,14.070772,28.480200,50.835819
7.805306,13.184309,4.078662,4.475601,28.684389,14.015067,28.597609,51.026634
7.910323,13.142279,4.045414,4.550398,28.220299,13.899420,28.802149,51.119053
8.035274,13.133838,4.000211,4.612234,27.515131,13.781007,29.070852,51.427425
8.103444,13.118609,3.921851,4.620439,27.196440,13.672801,29.182901,51.738911
8.218722,13.140326,3.802492,4.634933,26.707794,13.467762,29.563242,52.629673
8.250669,13.209834,3.763708,4.641324,26.551094,13.408785,29.787285,53.002586
8.375393,13.481544,3.637198,4.624049,26.620485,13.338388,30.800859,53.805599
8.374534,13.540578,3.611630,4.584150,26.696102,13.309762,31.031519,53.905853
8.354825,13.653737,3.588971,4.591729,26.946934,13.258381,31.432135,53.991364
8.307457,13.697907,3.570009,4.610247,27.022091,13.249080,31.691683,53.980301
8.281599,13.881723,3.513431,4.642958,27.034630,13.254238,32.333607,54.332077
8.253728,14.079329,3.447324,4.678142,27.034952,13.241422,32.975574,54.557495
8.237837,14.163151,3.405527,4.697244,26.967197,13.233356,33.311401,54.656368
8.201404,14.264312,3.260331,4.730987,26.463137,13.189435,34.002586,54.976162
8.161696,14.285171,3.106250,4.754434,26.134203,13.097973,34.559059,55.453938
8.148236,14.198685,2.919850,4.786033,26.316858,13.087290,35.157330,55.952824
8.171259,14.198092,2.865169,4.803113,26.509769,13.185356,35.615147,55.879608
8.180511,14.263562,2.841063,4.824836,26.571121,13.226816,35.836651,55.714458
8.207350,14.385660,2.752171,4.968878,26.591623,13.380678,37.211456,55.532227
8.217739,14.403371,2.717260,5.035922,26.611286,13.349419,37.599983,55.662895
8.236763,14.434937,2.679401,5.097606,26.629381,13.324345,37.970829,55.793301
8.285512,14.453297,2.524476,5.014577,27.024731,13.380141,39.964706,55.930485
8.287813,14.467432,2.450275,4.747108,27.300781,13.551665,40.955734,56.360439
8.295293,14.480518,2.417562,4.629190,27.466927,13.647330,41.456444,56.668781
8.296961,14.449053,2.253803,4.218823,27.816729,13.901402,43.212856,58.155048
8.279326,14.258906,2.167139,4.068636,27.997627,14.207572,44.077332,58.900387
8.263268,14.139770,2.168028,4.018393,28.135105,14.361324,44.382015,59.343292
8.233374,13.917660,2.184497,3.929637,28.703547,14.677473,45.222069,60.290615
8.208376,13.821668,2.200617,3.888191,28.996201,14.843162,45.592922,60.656631
8.157072,13.793465,2.248749,3.814973,29.482334,15.182893,46.336926,61.302307
8.124298,13.806757,2.299506,3.782695,29.696653,15.326502,46.665607,61.633575
8.056999,13.999366,2.378092,3.709394,30.048897,15.635778,47.341854,62.332710
8.063542,14.174366,2.444614,3.660278,30.225729,15.931541,48.066566,62.762444
8.095144,14.298278,2.514117,3.661104,30.600430,16.182535,48.604740,63.104225
8.269689,14.408753,2.581713,3.542517,31.931311,16.714556,49.798656,63.796146
8.313350,14.493262,2.588308,3.500251,32.242031,16.825916,50.078533,63.914654
8.353377,14.571016,2.594376,3.461364,32.527901,16.954800,50.382923,63.888874
8.434646,14.606398,2.559255,3.386339,33.114574,17.385288,51.197807,63.650757
8.592775,14.522057,2.564989,3.350320,33.409779,17.567368,51.554691,63.859200
8.824315,14.440958,2.569907,3.348481,33.791939,17.646984,51.833881,63.945465
8.972163,14.421582,2.592826,3.370008,33.983051,17.681946,52.158955,64.169678
9.330404,14.463975,2.610806,3.347044,34.291656,17.839460,53.135967,64.719597
9.961974,14.466648,2.610509,3.354826,35.566772,18.569811,54.521797,65.477036
10.113139,14.449006,2.610954,3.381629,35.871990,18.788696,54.699207,65.582001
10.430704,14.429914,2.611740,3.499413,36.434734,19.243315,54.938946,65.609215
10.642298,14.444654,2.612086,3.638881,36.667030,19.446373,55.148384,65.743561
11.066562,14.487539,2.612699,3.908932,36.778103,19.779440,55.418144,66.084534
11.477790,14.570111,2.611846,4.160025,36.396702,20.033970,55.779900,66.660286
11.702554,14.593892,2.610813,4.270724,36.327721,20.133215,56.152027,67.055351
11.931087,14.615771,2.628743,4.372571,36.383030,20.210766,56.422958,67.442001
12.119822,14.576024,2.645239,4.466275,36.382092,20.275276,56.681740,67.788399
13.030690,14.273980,2.709922,4.772489,36.718021,20.355335,57.023468,68.942757
13.182156,14.203449,2.719928,4.783674,37.053574,20.383112,56.991676,69.239265
13.417962,14.019504,2.737603,4.803433,37.736156,20.410381,56.917908,69.940773
13.613811,13.794018,2.794329,4.842350,38.082558,20.293392,56.630432,70.605713
13.867264,13.542897,2.987563,4.912520,38.608986,20.212101,56.195911,71.070793
14.124978,13.281116,3.185942,4.987144,39.160717,20.321413,55.843678,71.148369
14.353681,12.986902,3.500139,5.050310,39.866310,20.524801,55.548595,70.901596
14.457521,12.833677,3.653351,5.078158,40.221821,20.636242,55.293472,70.829948
14.654534,12.583298,3.942920,5.127353,40.815742,20.755997,54.987762,70.642395
15.099025,12.365172,4.286778,5.139964,41.175346,20.581913,54.764252,70.185387
15.357132,12.306653,4.366809,5.113469,41.354668,20.600227,54.750591,69.912376
15.663534,12.087027,4.367175,5.172967,41.599751,20.733541,54.860565,69.718719
15.815695,11.901676,4.389938,5.254344,41.759388,20.801779,55.062164,69.613251
16.023214,11.403331,4.447877,5.526757,42.423119,21.038445,55.239288,69.081688
16.038763,11.241364,4.464188,5.641439,42.711773,21.094110,55.225754,69.034370
15.948909,10.792784,4.459702,5.887080,43.515156,21.290606,55.089237,69.465729
15.895358,10.658444,4.456152,5.972906,43.732811,21.358669,55.068157,69.639954
15.795473,10.392304,4.470305,6.166968,44.570396,21.611031,55.024712,70.086525
15.580073,10.078363,4.497456,6.476240,46.372185,22.070049,54.539650,71.011230
15.402511,9.871879,4.644095,6.672760,47.584213,22.390097,54.200638,71.449692
15.248302,9.781943,4.732497,6.775302,47.939091,22.499149,54.093170,71.448967
14.898745,9.585819,4.896466,6.952386,48.175949,22.726233,53.753643,71.490120
14.553619,9.410900,5.036606,7.145711,48.483185,22.942919,53.066952,71.390045
14.390625,9.371643,5.098389,7.223515,48.501652,23.000374,52.539818,71.247818
13.906263,9.258514,5.357311,7.396798,48.313499,22.947598,51.044479,70.590126
13.544972,9.179915,5.549086,7.437571,48.210011,23.193279,50.273148,69.998238
13.386217,9.153514,5.633634,7.451146,48.316608,23.375225,49.911274,69.694603
12.508500,8.896425,5.943580,7.140958,48.614452,23.882545,48.181072,67.929382
12.068764,8.760467,6.093545,6.965937,48.606964,23.938652,47.311317,67.195244
11.639937,8.645378,6.209755,6.892849,48.060005,23.863298,46.288628,66.374359
11.278973,8.687992,6.349839,6.845697,47.863586,23.867140,45.487736,65.704704
11.081415,8.737500,6.411597,6.877614,47.906216,23.875706,45.196281,65.274010
10.448504,8.866305,6.573961,7.192986,48.214733,23.972801,44.501457,63.755035
10.063119,8.923345,7.081257,7.588430,48.451355,24.068230,44.219921,62.542229
9.740749,8.955945,7.759682,7.930224,48.581486,24.187071,43.909981,61.529388
9.409447,8.960100,8.275417,8.224670,48.959122,24.312195,43.630238,60.645176
8.783207,9.025606,8.933125,8.666477,49.441723,24.329586,42.815418,59.315392
8.662085,9.043868,9.008254,8.755770,49.514221,24.279655,42.676525,59.098156
8.475421,9.130177,9.154253,8.982726,49.821743,24.279318,42.272583,58.655323
8.285730,9.244054,9.253413,9.195524,50.554390,24.269718,41.713661,58.310665
8.146937,9.338262,9.413515,9.375654,51.647678,24.289749,41.049904,58.012329
8.064411,9.350377,9.547931,9.500335,52.194851,24.294056,40.704243,57.799511
7.864431,9.382689,9.781242,9.808244,52.841240,24.067562,39.889606,57.377174
7.754496,9.402159,9.882120,9.960780,53.179810,23.936382,39.391708,57.191040
7.553279,9.447321,10.031429,10.175094,53.954288,23.689220,38.244518,56.903652
7.408835,9.387824,10.175239,10.276375,54.651459,23.459736,36.728058,57.063889
7.348568,9.341930,10.252968,10.231537,55.128029,23.250551,35.949070,56.893112
7.288528,9.331079,10.355628,10.233429,55.491810,23.036264,35.235382,56.478127
7.250360,9.328268,10.401232,10.219370,55.691280,22.920513,34.714264,56.238548
7.205586,9.295409,10.482475,10.169216,55.784515,22.682314,33.690125,55.567722
7.193783,9.285437,10.557442,10.080614,55.795326,22.496189,33.165371,55.057449
7.183242,9.294482,10.535292,10.068389,55.904072,22.107656,32.624729,54.298885
7.188683,9.303228,10.473908,10.062327,56.123886,21.953236,32.338379,53.932705
7.193689,9.312460,10.392739,10.056427,56.346405,21.829277,32.090725,53.629879
7.238283,9.400436,10.351670,10.045521,57.874180,21.664522,30.835596,52.202927
7.251921,9.393835,10.371928,10.027924,58.016220,21.596037,30.568222,52.022285
7.271621,9.304925,10.321442,10.012893,58.342316,21.431776,30.205294,52.058292
7.323357,9.227248,10.282650,9.986569,58.790295,21.065607,29.969877,52.341057
7.346326,9.197765,10.269827,9.978857,58.878090,20.843664,29.962833,52.553490
7.395544,9.192012,10.339685,9.965235,59.090641,20.395208,30.006800,53.042271
7.445623,9.184746,10.412282,9.934955,59.318588,20.128952,30.121717,53.546642
7.494844,9.185002,10.483273,9.919793,59.490807,20.038460,30.234507,53.647831
7.524722,9.205541,10.651885,9.938972,59.954521,19.942739,30.342991,53.654270
7.509663,9.038988,10.804012,9.907557,60.823055,19.858257,30.462917,53.813427
7.531434,8.848856,10.881110,9.714736,61.341682,19.859034,30.502666,54.016327
7.557549,8.775343,10.917536,9.598769,61.400017,19.834146,30.474154,54.186321
7.591359,8.710796,10.945879,9.451706,61.288876,19.840971,30.327547,54.388542
7.684782,8.690023,10.630649,9.030606,60.812626,19.865776,30.178921,54.665577
7.764351,8.821290,10.148028,8.660747,60.331760,19.857513,30.021912,54.987823
7.799852,8.916264,9.963757,8.513897,59.953594,19.853266,29.915556,55.132168
7.823801,9.261144,9.392530,8.100868,59.187263,19.853310,29.946985,55.281895
7.848019,9.378752,9.195883,8.045874,58.741909,19.760782,30.160522,55.294239
7.921109,9.440648,9.168612,8.060364,58.155701,19.688528,30.500484,55.723560
7.956856,9.537451,9.161181,8.309109,56.966740,19.767424,31.049587,55.942326
7.949630,9.545642,9.203675,8.387320,56.522213,19.826181,31.301624,56.037769
7.952219,9.578741,9.201798,8.408429,55.375240,20.016922,32.094807,56.134090
7.932298,9.566616,9.225715,8.360488,55.211872,20.096901,32.309616,56.154732
8.140336,9.523661,9.292727,8.248601,54.812870,20.175421,33.062714,56.371941
8.255815,9.506271,9.365422,8.199530,54.785599,20.240688,33.471428,56.141117
8.299460,9.522065,9.408340,8.177404,54.560345,20.336731,33.623138,55.927757
8.517071,9.566627,9.557965,8.081239,53.487503,20.690205,34.122356,55.714565
8.619102,9.572458,9.591997,8.046035,53.026184,20.765699,34.428192,55.864086
8.866629,9.406569,9.777143,7.923536,51.500881,20.788448,35.086044,56.160236
8.921634,9.334211,9.885153,7.883811,51.000889,20.815525,35.292812,56.089554
9.050035,9.215553,10.075956,7.769934,50.053669,20.907749,35.718552,56.056595
9.110253,9.152504,10.160074,7.716903,49.552219,20.932156,35.918465,56.094765
9.240056,9.051022,10.325108,7.610373,48.451557,20.863768,36.170975,56.127796
9.356901,8.967657,10.346067,7.480993,47.268139,20.743238,36.574177,55.907951
9.521292,8.860106,10.286791,7.418880,46.660583,20.833467,36.905533,55.789082
9.568007,8.819027,10.260658,7.408343,46.533543,20.916050,37.076302,55.614426
9.681383,8.688929,10.134855,7.346089,46.294674,21.188923,37.239597,54.714542
9.693646,8.666819,10.129741,7.324359,46.133720,21.216709,37.148117,54.642502
9.680571,8.579161,10.058691,7.388963,45.676350,21.264570,36.964771,54.640568
9.675105,8.531006,10.029583,7.451035,45.448463,21.225826,36.854458,54.644253
9.617274,8.393058,9.821257,7.576822,44.556023,21.032261,36.878086,54.548710
9.569702,8.324684,9.681767,7.609756,43.526337,20.894640,36.875175,54.256863
9.549058,8.294540,9.634517,7.628020,43.182644,20.822319,36.826977,54.160957
9.351353,8.367594,9.472341,7.625180,41.320797,20.464754,36.412613,54.333336
9.278433,8.356766,9.423553,7.645124,40.485428,20.114243,36.069496,54.604160
9.161410,8.267350,9.440003,7.739459,39.383514,19.643324,35.542263,54.594440
9.120454,8.138681,9.471453,7.846363,38.595264,19.275520,35.291626,54.640827
9.120145,8.048326,9.485318,7.933805,38.095592,19.084902,35.109074,54.642498
9.180195,7.998233,9.413927,7.965670,36.666611,18.611244,34.891178,54.829231
9.122846,8.064717,9.281627,8.021962,35.983681,18.326767,34.822426,54.790386
9.049663,8.102763,9.052983,7.899440,35.375629,18.081514,34.706783,54.460484
9.018950,8.140379,8.882984,7.753168,34.485905,17.749620,34.554295,54.079456
9.005950,8.123531,8.603562,7.639614,33.614861,17.458439,34.319439,53.857685
9.001125,8.117456,8.462595,7.593637,33.271690,17.364830,34.390263,53.883072
8.899744,8.231053,8.020638,7.450969,31.688862,16.990334,34.739563,53.751110
8.770141,8.292196,7.904016,7.406721,31.121832,16.904470,34.829334,53.669353
8.560196,8.439270,7.768595,7.416955,29.927860,16.767696,34.942776,53.439785
8.269558,8.698819,7.547185,7.658707,28.500546,16.683670,35.189526,53.153015
8.066133,8.897011,7.399489,7.816088,27.642057,16.566807,35.287373,52.651169
7.838494,9.134669,7.280181,7.949308,27.031221,16.493841,35.199032,51.855415
7.737987,9.241693,7.195344,8.018207,26.795849,16.478998,35.243393,51.410069
7.653651,9.340963,7.050252,8.081597,26.531153,16.488638,35.275253,51.018932
7.307645,9.696554,6.685308,8.625954,25.663513,16.379704,35.508053,50.584824
7.055499,9.938740,6.558531,9.165773,24.954269,16.375969,35.600872,50.547623
6.842247,10.179361,6.437593,9.478601,23.615993,15.991984,35.869270,50.956203
6.784607,10.266340,6.403548,9.558063,23.032953,15.791997,36.064598,51.112030
6.711918,10.443562,6.334974,9.716304,21.666035,15.417933,36.703255,51.554295
6.806598,10.633924,6.276928,9.854504,20.514040,15.122598,37.494823,52.138599
6.896214,10.821785,6.222846,9.960160,19.538897,14.951560,38.382587,52.413021
6.934340,10.912817,6.196187,9.939693,19.108990,14.925245,38.788319,52.522179
7.015079,11.069720,6.149091,9.904777,18.395285,14.860932,39.464027,52.747662
7.082802,11.259008,6.105075,9.874058,17.833225,14.789029,39.890221,53.169090
7.184277,11.567685,6.369148,9.949791,17.296562,14.821250,40.802307,54.078957
7.230032,11.669198,6.497521,9.981459,17.166273,14.826703,41.035343,54.255268
7.272130,11.737138,6.615629,10.029726,17.158695,14.854803,41.249561,54.296055
7.360030,11.863605,6.806441,10.114993,17.309235,15.045536,41.629570,54.124630
7.438443,12.052378,6.951377,10.172953,17.606737,15.275119,42.127415,54.179501
7.523477,12.090471,6.948802,10.206347,18.077055,15.479443,43.044891,54.418568
7.634742,12.109373,6.871885,10.307240,18.837778,15.926664,43.893333,54.525490
7.763805,12.171461,6.749635,10.338454,19.534706,16.368155,44.881634,54.698811
7.976540,12.150941,6.634775,10.351222,19.992294,16.707718,45.700546,54.884800
8.244741,12.212832,6.493768,10.349753,20.557184,17.092157,45.920319,55.431255
8.337289,12.256297,6.508775,10.389524,20.877638,17.250164,45.921478,55.592373
8.673556,12.416536,6.521651,10.641484,22.356337,17.834480,46.127777,56.088017
8.886497,12.510556,6.522792,10.767841,23.492687,18.155893,46.333595,56.212730
9.091794,12.559674,6.523756,10.852950,24.410795,18.387899,46.398315,56.573303
9.212875,12.558336,6.524182,10.883139,24.761356,18.472616,46.372257,56.763790
9.454299,12.485957,6.546935,10.946986,25.367155,18.578535,46.510689,57.188255
9.545438,12.452345,6.517328,10.952566,25.627768,18.599892,46.587883,57.381824
9.752540,12.358891,6.415144,10.798006,26.121189,18.443827,46.659920,57.738674
9.973828,12.383409,6.338591,10.627808,26.895905,18.355743,46.742264,58.050896
10.364338,12.330360,6.215914,10.340298,28.234095,18.397776,46.803513,59.541374
10.497822,12.319160,6.189756,10.281496,28.449106,18.422476,46.762867,60.065723
10.725372,12.354998,6.150853,10.121258,28.634060,18.483717,46.547508,60.881050
10.979277,12.411450,6.056255,9.847392,28.710142,18.525129,46.398266,61.074512
11.214056,12.491039,5.971799,9.477619,28.819479,18.466667,46.596241,61.360321
11.431297,12.583760,5.882250,9.107708,29.110023,18.567043,46.763321,61.721348
11.524020,12.644142,5.873477,9.000543,29.484505,18.673594,46.931999,61.826591
11.600197,12.687910,5.865406,8.901946,29.829048,18.807499,47.040043,61.855919
11.808320,12.671448,5.973511,8.789071,31.082975,19.297970,47.532227,62.571701
11.833062,12.691698,6.031942,8.777924,31.932631,19.565506,47.688995,62.764641
11.815453,12.719470,6.067751,8.807275,32.322464,19.707447,47.795444,62.776596
11.827406,12.736282,6.101633,8.848715,33.063152,19.862469,47.833740,62.667152
11.894649,12.763327,6.077045,8.970200,33.759327,19.983290,47.900822,62.839077
11.897700,12.777512,6.090354,9.076203,34.197502,20.038776,48.022926,62.868362
11.909398,12.789124,6.196002,9.365511,35.047173,20.213984,48.124695,62.854488
11.909998,12.810881,6.083288,9.556694,35.693287,20.264339,48.057083,62.605339
11.909903,12.774928,5.785009,9.680223,36.248455,20.318777,48.191437,62.588310
11.946298,12.764422,5.421208,9.850224,36.363323,20.302710,48.612370,63.293724
11.895380,12.819081,5.224571,9.974651,36.300266,20.209724,48.660843,63.322475
11.908566,12.852311,5.111160,10.143171,36.503975,20.346842,48.238537,63.487244
11.894027,12.883426,5.140706,10.175834,36.388973,20.148010,47.856880,63.594345
11.915577,12.911805,5.181705,10.190234,36.312080,20.110628,47.672440,63.685093
11.886550,12.925747,5.290200,10.178012,36.241341,20.060757,47.503883,63.602440
11.755387,12.962553,5.491797,10.174482,36.219566,20.003838,47.480476,63.821800
11.728672,12.891762,5.585437,10.159884,36.197186,20.083626,47.531895,63.929962
11.722804,12.742710,5.728302,10.135561,36.135689,20.288200,47.777218,64.076569
11.640647,12.272923,5.832086,9.729524,35.476704,20.357323,48.594051,64.537094
11.597398,12.197448,5.852967,9.623826,35.330402,20.334290,48.768494,64.695160
11.550708,12.164188,5.872178,9.526579,35.182224,20.353958,48.958477,64.892990
11.456617,12.166874,5.921358,9.511847,35.169376,20.399387,49.174194,64.940201
11.334411,12.163845,5.947771,9.550447,35.691036,20.500965,49.216099,64.749557
11.295169,12.161418,5.986009,9.556942,35.990376,20.547903,49.122330,64.670357
11.266611,12.155129,6.021190,9.564123,36.281502,20.583937,49.102619,64.572487
11.168637,12.086137,6.093235,9.598200,37.158985,20.671368,49.045944,64.348679
11.032514,11.873751,6.181610,9.615009,37.943523,20.788378,49.118607,64.026955
10.929895,11.616885,6.311947,9.639745,38.880707,20.782583,49.096859,63.324051
10.826432,11.527108,6.395782,9.650455,39.411167,20.732656,49.185120,62.953640
10.718550,11.609135,6.492095,9.708826,40.199787,20.560406,49.123257,62.676571
10.722779,11.680938,6.542162,9.793185,40.446835,20.590332,48.962936,62.739304
10.842765,11.754466,6.620955,9.987704,40.937923,20.755600,48.593395,63.044559
10.928918,11.772048,6.668278,10.073460,41.172249,20.862307,48.493084,63.257175
11.018609,11.706081,6.721169,10.138338,41.652893,21.050413,48.118717,63.434109
11.085471,11.679557,6.729773,10.163636,41.887943,21.110088,47.949375,63.431293
11.189969,11.636071,6.707769,10.150481,42.457626,21.254374,47.455238,63.126923
11.334331,11.543236,6.752912,9.903438,43.161411,21.705395,46.343941,63.233185
11.323427,11.482697,6.903798,9.854861,43.346874,21.848715,45.969341,63.119408
11.303473,11.447658,7.073480,9.922531,43.417271,21.905684,45.746609,63.009361
11.294580,11.409887,7.260118,9.984792,43.476212,22.000639,45.614025,62.775780
11.294965,11.381166,7.445991,9.960673,43.331585,22.118591,45.461044,62.598091
11.315563,11.348100,8.015448,10.313890,43.167629,22.247583,45.198200,62.215843
11.316844,11.311007,8.277608,10.501832,43.119469,22.299393,45.094276,62.043720
11.294872,11.263266,8.796664,10.876366,42.932571,22.435419,44.716961,61.701195
11.281877,11.240046,9.090840,11.053111,42.762390,22.471970,44.490135,61.474674
11.217713,11.123633,9.610506,11.315178,42.536629,22.586514,43.998638,60.775272
11.204622,10.993761,10.050395,11.585305,42.640396,22.733095,43.518616,60.367306
11.149676,10.826327,10.482384,11.805840,42.838261,22.902254,43.183128,59.692497
11.118207,10.721418,10.740021,12.003598,43.006287,23.013716,42.880840,59.100544
11.105985,10.699267,10.875073,12.098904,43.097179,23.072613,42.687145,58.897137
11.036644,10.630377,10.983756,12.267263,43.355927,23.004547,42.075188,58.585930
10.988576,10.619479,11.024001,12.410244,43.755043,23.025759,41.534733,57.985466
10.924139,10.618368,11.036982,12.448635,43.909752,22.924744,41.263805,57.539890
10.754608,10.612519,11.061750,12.567516,44.326031,22.805021,40.662785,56.486153
10.446473,10.581167,11.017285,12.726409,44.230846,22.399628,39.270576,55.277657
10.395259,10.566413,11.006887,12.761842,44.091991,22.318964,38.916248,55.158031
10.307842,10.559336,11.077135,12.738571,44.216713,22.115074,38.073849,54.609318
10.278695,10.590301,11.205128,12.687343,44.023430,22.081842,37.872189,54.511513
10.287762,10.631569,11.322887,12.640210,43.994495,22.061914,37.658730,54.485367
10.235875,10.757054,11.619717,12.544831,44.073540,22.386404,37.126087,54.211010
10.227414,10.777605,11.709324,12.517447,43.881741,22.486036,37.005135,54.098415
10.191506,10.804188,11.830282,12.483965,43.178574,22.423061,36.603645,53.977200
10.182382,10.849872,11.911244,12.442423,42.713428,22.421408,36.301491,53.826500
10.055766,10.878843,12.024550,12.519136,42.562435,22.445713,35.650070,53.006401
10.048201,10.741972,12.161016,12.590788,43.021404,22.528568,35.301125,52.732208
10.014713,10.512806,12.341681,12.617785,43.497837,22.556479,35.007362,52.472622
9.872125,10.279273,12.471809,12.631382,44.012802,22.614466,34.671223,51.831394
9.671973,10.114425,12.558878,12.691030,44.613831,22.549732,34.209133,51.064293
9.440785,9.959166,12.632578,12.718022,44.964191,22.413195,33.701378,50.398903
9.204177,9.842292,12.651581,12.718554,44.862061,22.260916,33.163727,49.849789
8.987210,9.740309,12.643773,12.717423,44.985653,22.008524,32.563534,48.853630
8.898080,9.727846,12.625046,12.716169,45.039940,21.883495,32.368423,48.317696
8.731213,9.677807,12.549021,12.713952,45.172985,21.655891,32.068001,47.590637
8.520200,9.876530,11.906792,12.242802,46.302345,21.053570,31.139194,46.341736
8.479183,9.923946,11.397655,11.616286,46.833138,20.700047,30.669590,45.797375
8.465983,9.931691,11.162648,11.311024,47.003571,20.541227,30.436306,45.549088
8.433319,9.927592,10.753986,10.729238,47.437138,20.229334,29.999407,44.978912
8.445446,9.989228,10.332842,10.235224,48.248245,19.892622,29.861334,44.808487
8.457355,10.027257,10.158724,10.027383,48.559277,19.704882,29.804377,44.866673
8.430580,10.122916,9.851140,9.611937,48.852947,19.319618,29.784224,44.898193
8.386424,10.333336,9.531144,9.135490,48.745689,18.846647,29.745132,45.021053
8.213065,10.505183,9.051569,8.472515,48.994892,18.489733,29.648378,45.134331
8.088543,10.538435,8.781355,8.170795,49.553688,18.574738,29.712679,45.285976
8.027792,10.552312,8.647503,8.058149,49.702469,18.573975,29.615240,45.541973
7.933561,10.536085,8.423406,7.906088,49.943680,18.623329,29.361507,46.234375
7.921142,10.595740,8.348463,7.874191,49.974808,18.643343,29.224405,46.565895
7.907817,10.760199,8.216078,7.782583,50.108875,18.677229,29.025360,47.003044
7.882429,10.989651,8.104016,7.713025,50.295979,18.792873,28.899826,47.100216
7.818139,11.175541,8.009158,7.646153,50.362339,18.909023,28.706535,46.934235
7.803624,11.189901,7.953819,7.612843,50.181545,18.919624,28.522518,46.741421
7.694777,11.136683,7.701817,7.491864,49.970821,18.863899,27.879263,46.404652
7.633428,11.113512,7.590109,7.510520,49.953392,18.813540,27.670530,46.322510
7.517254,11.049413,7.335194,7.553349,49.651161,18.465765,27.206221,46.433502
7.415960,11.059968,7.099108,7.554246,49.418968,18.285221,26.690237,46.778934
7.367774,11.075189,6.998751,7.546886,49.290031,18.207399,26.478029,46.903286
7.323440,11.098334,6.906420,7.540115,49.171402,18.101494,26.254728,46.999569
7.174425,11.201078,6.952333,7.529017,48.776886,17.949451,26.001398,47.343300
7.075801,11.331183,7.239334,7.460149,48.746597,17.860933,25.895802,47.625031
7.046868,11.399468,7.384610,7.385397,48.623074,17.832262,25.836691,47.758575
6.757149,11.564203,7.591197,7.151409,48.292885,17.691620,25.657917,47.277691
6.485593,11.812825,7.675584,6.930800,47.643246,17.258966,25.443211,46.943291
6.401819,11.889359,7.691376,6.850085,47.420189,17.115768,25.409424,47.045212
6.356099,11.963461,7.705905,6.776320,47.051605,16.941322,25.379082,47.399776
6.302306,12.073636,7.731573,6.604681,46.268314,16.596804,25.260662,47.517597
6.287396,12.134665,7.768106,6.532819,46.072323,16.471960,25.249655,47.619873
6.298762,12.213540,7.825073,6.434261,45.560375,16.142298,25.413734,47.940536
6.300933,12.273512,7.854564,6.404413,45.332237,15.974454,25.627975,48.111404
6.297688,12.345907,7.935544,6.352551,44.956478,15.681258,26.266302,48.436172
6.289750,12.349849,8.126442,6.252802,44.562710,15.471110,27.101849,49.085861
6.312615,12.271220,8.281362,6.153507,43.841393,15.401283,27.462866,49.540142
6.297841,12.216644,8.307352,6.095509,43.574711,15.399067,27.715317,49.778919
6.281630,12.130517,8.332177,5.953779,43.007404,15.393903,28.237570,50.245853
6.266608,12.077970,8.327682,5.818258,42.394680,15.369684,28.933352,50.788319
6.258700,12.034318,8.302311,5.758511,41.958397,15.366693,29.211170,51.029697
6.285520,11.990787,8.280790,5.683272,41.497971,15.420060,29.502499,51.234020
6.348502,11.953181,8.220598,5.550361,40.794563,15.605973,30.055105,51.504524
6.400021,11.866017,8.169645,5.437853,40.352127,15.811598,30.455067,51.655941
6.555129,11.724303,8.213502,5.647404,39.305401,15.895013,31.300714,51.881634
6.620304,11.683210,8.256628,5.775507,38.791779,15.813939,31.574152,51.755375
6.752378,11.660170,8.304688,5.931083,37.585217,15.499342,32.019890,51.411346
6.814388,11.641270,8.356514,5.974504,37.069149,15.338423,32.228409,51.134632
6.901606,11.604490,8.435711,5.983029,36.318905,15.026440,32.657257,50.607555
6.950721,11.475995,8.452542,5.869203,35.747208,14.663445,33.133450,50.347126
6.983041,11.259826,8.466791,5.756185,35.147648,14.239966,33.548393,50.063015
7.037919,11.059013,8.481996,5.660517,34.671822,13.915400,33.916290,50.130009
7.073311,10.970133,8.490205,5.618340,34.530807,13.754497,34.084137,50.201466
7.291387,10.748805,8.421944,5.473866,33.807598,13.451980,35.580421,50.910591
7.411442,10.659310,8.338150,5.332542,33.138493,13.480246,36.390270,51.092407
7.523260,10.648932,8.267220,5.230850,32.563725,13.510777,37.617039,51.048485
7.663207,10.653432,8.298610,5.206419,32.344982,13.499392,38.934914,51.054207
7.739159,10.642024,8.328000,5.223513,32.303768,13.562790,39.611755,51.037971
7.924429,10.518133,8.181195,5.262072,32.199986,13.599764,40.652744,50.971989
8.093352,10.346857,7.801529,5.295298,31.712307,13.655456,41.575722,51.025047
8.148798,10.260421,7.607380,5.322733,31.412394,13.688712,42.067711,51.099171
8.282188,10.117651,7.264412,5.416066,30.571083,13.686989,42.961281,51.222237
8.493191,9.981182,6.849028,5.581521,29.323677,13.833402,44.117481,51.299358
8.710648,9.925425,6.730484,5.703770,28.602253,13.922114,44.988842,51.224438
8.789529,9.894579,6.723049,5.766839,28.242905,14.071738,45.382244,51.173237
8.918044,9.839284,6.732853,5.887739,27.608109,14.376426,46.074005,51.250736
8.968205,9.809099,6.715962,5.941777,27.267530,14.497161,46.411106,51.319035
9.028872,9.762323,6.676990,6.008850,26.790039,14.735776,46.784897,51.323544
9.147004,9.736998,6.646608,6.062180,26.441267,15.128130,46.706287,51.434643
9.317586,9.653192,6.575562,6.145883,26.357101,15.551361,46.379601,51.616245
9.487362,9.561916,6.445327,6.220794,26.298931,15.955248,46.202408,51.790646
9.532268,9.554591,6.346962,6.242679,26.356596,16.186275,46.217152,51.884159
9.696271,9.701242,6.032385,6.414877,26.919634,16.756433,46.249794,52.562454
9.893456,9.885362,5.697292,6.613833,27.771746,17.236677,46.662384,53.252323
9.956604,9.970004,5.507244,6.720868,28.675226,17.511608,46.768147,53.243633
9.980710,9.965774,5.422585,6.767814,29.279430,17.593025,46.793587,53.129425
10.118285,9.888769,5.333210,6.850747,30.520393,17.697641,46.753407,53.295383
10.324135,9.753333,5.280087,6.888797,31.676565,17.819098,46.709393,53.566212
10.414597,9.686266,5.261641,6.895127,32.181458,17.890669,46.561409,53.734600
10.581250,9.581698,5.178641,6.909139,33.221134,18.014435,46.309845,54.115768
10.742087,9.444542,5.093417,7.166346,34.089054,18.115585,46.215961,54.656200
11.045134,9.326493,4.933315,8.378600,35.764034,18.667250,46.358982,55.412735
11.141273,9.395903,4.926711,8.975164,36.848675,18.942760,46.547970,56.047619
11.326903,9.457188,4.921121,9.486732,37.771938,19.228090,46.766960,56.611206
11.473621,9.561723,4.915561,9.921930,38.686829,19.522518,46.928967,56.994213
11.527414,9.612092,4.915606,10.112128,39.080971,19.627741,46.860458,57.166595
11.552914,9.653523,4.915648,10.287119,39.455635,19.769262,46.667229,57.211971
11.583643,9.774764,4.915722,10.597762,39.861694,19.995495,46.463360,57.307018
11.638347,9.834094,4.915785,10.868150,40.469177,20.179453,46.212440,57.428196
11.927116,9.889623,4.932079,11.592160,41.634293,20.319754,45.358364,57.879189
12.016585,9.934079,4.888615,11.762085,41.957481,20.337080,44.969284,58.214546
12.106959,9.998028,4.842178,11.918424,42.382069,20.321707,44.585258,58.678310
12.256796,10.192810,4.714137,12.320383,44.379410,20.312263,43.793476,59.855389
12.456748,10.312824,4.688538,12.618127,45.864925,20.333874,43.268185,60.440479
12.706377,10.462786,4.701357,12.922911,47.130054,20.369783,42.856071,61.089035
12.915530,10.539708,4.734928,13.170638,48.296833,20.473986,42.541821,61.924797
13.039019,10.543606,4.667573,13.401079,49.557480,20.591940,42.215328,62.866867
13.073648,10.576129,4.631807,13.672504,50.215279,20.650024,42.063808,63.283447
13.212451,10.648933,4.477259,14.628222,52.310802,20.690840,41.785912,64.528328
13.303339,10.691185,4.433310,14.982822,52.955524,20.657309,41.673580,64.917480
13.412202,10.721473,4.392875,15.333466,53.629055,20.618977,41.552197,65.320648
13.527589,10.701069,4.355673,15.656075,54.248222,20.590834,41.442780,65.641045
13.621102,10.682298,4.321445,15.959535,54.851032,20.550547,41.251400,65.922379
13.830796,10.591087,4.241545,16.673086,56.196743,20.292841,40.992741,66.278992
13.849524,10.551061,4.209887,17.042128,57.146942,20.016912,40.866814,66.340485
13.860142,10.535013,4.207338,17.207706,57.689110,19.845345,40.724876,66.409935
13.865306,10.496902,4.244659,17.506714,58.809769,19.649698,40.394932,66.399399
13.923246,10.399140,4.270953,18.134172,60.049801,19.402611,39.629025,66.407074
14.032693,10.419949,4.290235,18.645338,60.766365,19.189013,39.044224,66.709923
14.129383,10.454744,4.306556,19.411991,60.805988,18.942451,38.621899,67.127914
14.146651,10.523458,4.268291,20.133390,60.778175,18.749249,38.568180,67.526436
14.128159,10.576697,4.262087,20.451910,60.912849,18.659475,38.577526,67.634308
14.085856,10.625681,4.260818,20.744963,61.105808,18.553728,38.582954,67.681541
14.031891,10.942346,4.141335,21.240486,61.916210,18.457539,38.538475,68.101196
14.040336,11.050514,4.107658,21.250484,62.175037,18.514894,38.465092,68.218513
14.018001,11.145071,4.076098,21.207544,62.450523,18.558821,38.364597,68.256538
14.010115,11.426920,4.070964,20.689453,62.781082,18.438074,37.801113,68.665298
14.097980,11.703894,4.111400,20.103336,62.519470,18.699123,37.322662,68.778465
14.062179,11.889511,4.433845,19.855476,62.309513,18.828789,36.987419,68.607048
14.058517,11.977440,4.586640,19.817739,62.207592,18.866848,36.834934,68.529404
14.006433,12.038798,4.898201,19.784790,61.970127,18.918610,36.663231,68.335716
14.006417,12.071899,5.054731,19.787029,62.034653,18.961142,36.732929,68.174019
14.018448,12.085767,5.209106,19.789089,62.094006,18.982660,36.650742,68.042076
14.044147,12.123452,5.367895,19.781893,62.009792,18.945816,36.624607,67.944252
14.054629,12.232031,5.709223,19.794178,62.222828,18.900436,36.646370,67.664093
13.783261,12.261773,6.243861,19.612614,62.557842,19.003300,36.856785,66.319054
13.616875,12.177868,6.470572,19.594387,62.168636,19.074089,37.258240,65.140236
13.544651,12.130144,6.570522,19.616209,61.788483,19.122833,37.391438,64.582596
13.394277,12.101637,6.795824,19.767509,60.991631,19.175579,37.658806,63.759960
13.179349,12.077207,7.032676,19.948175,60.178143,19.282534,37.863697,63.427994
12.843824,11.961720,7.300403,20.276180,59.606079,19.597555,38.099308,62.728733
12.716544,11.929877,7.581431,20.733723,59.578339,19.798689,38.223801,62.330944
12.627000,11.892578,7.774443,20.847683,59.664757,19.859636,38.260876,62.034771
12.441689,11.830819,8.101541,20.861145,59.798111,19.897865,38.352238,61.233429
12.042911,11.734018,8.469224,21.047024,60.031357,20.008648,38.459656,60.162128
11.662090,11.667449,8.820549,21.329924,60.299530,20.044262,38.675827,59.681362
11.452743,11.586708,8.984426,21.539738,60.028713,20.027971,38.718784,59.546417
11.371605,11.551110,9.056675,21.639009,59.787663,20.029951,38.719746,59.484718
11.247007,11.446098,9.191953,21.958683,59.223667,20.021976,38.689144,59.325588
11.138026,11.256962,9.284952,22.154636,58.802025,19.918026,38.645370,59.073132
11.024168,11.197677,9.372682,22.235893,58.481438,19.829252,38.526516,59.057648
10.951017,11.129485,9.411359,22.253939,58.352791,19.799995,38.410309,58.917526
10.752318,10.966354,9.474613,22.157036,58.359428,19.878290,38.207382,58.446083
10.458247,10.818403,9.551764,21.519924,58.675797,20.198425,37.590523,57.568142
10.258227,10.693661,9.556182,21.210743,58.402115,20.420048,37.051846,56.992874
10.102140,10.550673,9.569498,21.043743,57.883816,20.622025,36.606407,56.902489
9.916036,10.260393,9.615825,21.017599,57.353706,20.713640,36.147720,56.838985
9.707702,10.012307,9.735292,21.103281,56.894028,20.773460,35.772903,56.641174
9.634554,9.902935,9.847209,21.193390,56.703705,20.822767,35.595680,56.456039
9.404628,9.654372,10.049452,21.293779,56.433567,20.824236,35.153690,55.912983
9.228786,9.329782,10.176697,21.362261,56.498779,20.696707,34.594879,55.420231
9.169220,9.166218,10.175411,21.392061,56.705242,20.617567,34.325756,55.315891
8.933611,8.716455,9.897335,21.288242,57.756287,20.540552,33.756214,54.856476
8.768609,8.498956,9.702889,21.108107,58.799198,20.699936,33.384232,54.551003
8.600978,8.408794,9.524035,20.924862,59.839745,20.880697,32.924763,54.430534
8.477698,8.290675,9.371964,20.750402,60.806885,20.998625,32.535851,54.081631
8.380630,8.180389,9.166992,20.543142,61.458771,21.105743,32.166874,53.848587
8.329163,8.131969,9.076626,20.367922,61.704025,21.133282,31.977304,53.710838
8.276089,8.093030,8.993486,20.180532,62.024925,21.142427,31.703823,53.656563
8.202615,8.035296,8.819812,19.938068,62.493938,21.286198,31.129028,53.692005
8.183944,7.990530,8.756624,19.884504,62.688881,21.401688,30.850227,53.781494
8.205807,7.949343,8.698488,19.848396,63.004852,21.509054,30.682692,53.840633
8.264538,7.818167,8.391627,19.538097,63.485237,21.668507,30.155088,53.860489
8.288419,7.776113,8.150743,19.171255,64.139687,21.648933,29.874489,53.666267
8.282420,7.760080,8.044546,19.021088,64.534973,21.580513,29.732700,53.552174
8.168425,7.686439,7.638246,18.363409,64.870346,21.380703,29.308361,52.853695
8.167371,7.659550,7.402809,18.010801,64.758087,21.373871,29.129232,52.747551
8.170844,7.638955,7.202788,17.686388,64.596695,21.371962,29.010660,52.760696
8.172210,7.582541,6.849446,17.089600,64.086227,21.332684,28.799057,52.915894
8.220972,7.550013,6.550348,16.374878,63.505657,21.260494,28.677303,53.056938
8.221637,7.484425,6.088558,15.095707,62.187092,21.229460,28.330063,52.818031
8.186384,7.477456,6.020424,14.816186,62.087845,21.402901,28.182472,52.584541
8.108344,7.554238,5.914798,14.251184,62.101025,21.907949,27.862597,52.105160
8.105706,7.696220,5.854557,13.731946,61.880260,22.333326,27.725498,51.749966
8.063831,7.799695,5.774911,13.304914,61.702847,22.666004,27.670122,51.314487
8.014883,7.891339,5.729707,13.009163,61.365635,22.922047,27.748919,50.771027
8.019965,8.018502,5.709779,12.901551,61.064766,22.992313,27.789654,50.521801
8.014343,8.222801,5.674572,12.739110,60.403957,23.123039,27.941339,50.178463
8.048018,8.361794,5.699841,12.648046,60.101383,23.289749,28.055897,50.214207
8.170162,8.584314,5.926352,12.523516,59.985718,23.621035,28.067720,49.779018
8.196653,8.696927,5.967063,12.440311,59.950405,23.712605,28.113041,49.533096
8.231460,9.073929,6.038981,12.197093,59.981861,23.856350,28.415876,49.228790
8.253998,9.255960,6.081739,12.068200,60.022762,23.880886,28.539961,49.044090
8.292542,9.579035,5.960539,11.697396,59.997364,23.890818,28.824606,48.757259
8.378286,9.823392,5.787836,11.342759,60.332970,23.959383,29.205393,48.706757
8.395418,10.010909,5.633422,11.031196,60.378643,23.878252,29.677464,48.788315
8.382447,10.099715,5.597889,10.896873,60.263596,23.833273,29.864355,48.657768
8.370633,10.250738,5.561419,10.659588,59.978325,23.858131,30.034088,48.393005
8.446025,10.647479,5.513621,10.301372,58.227886,23.515831,30.440405,47.884045
8.444951,10.710772,5.502081,10.269219,57.609154,23.362146,30.526722,47.815842
8.397893,10.827024,5.459586,10.201463,56.358593,23.156933,30.648842,47.730030
8.359035,10.868444,5.436110,10.166341,55.658268,23.044937,30.744869,47.746349
8.321362,10.904222,5.392564,10.099442,53.645180,22.783155,31.048237,47.995117
8.369936,10.876381,5.393457,10.002561,52.668896,22.696505,31.201900,48.045959
8.377572,10.863660,5.386393,9.868286,52.317368,22.591255,31.170732,48.033192
8.313928,10.851834,5.385780,9.555515,51.549282,22.465494,31.034506,48.034050
8.190756,10.842791,5.402089,9.276461,50.781178,22.445902,30.950644,47.777172
7.945780,10.692983,5.437615,8.930169,48.533653,22.284374,30.839491,47.292545
7.857419,10.672100,5.435022,8.723273,47.461750,22.066185,30.687681,47.233162
7.791265,10.654410,5.426030,8.642682,46.931351,21.923397,30.660049,47.202793
7.703000,10.681329,5.449765,8.469407,46.014549,21.695660,30.575706,47.247902
7.642347,10.722045,5.469856,8.287774,45.358082,21.588833,30.611799,47.032799
7.596155,10.786785,5.494933,8.135885,44.962860,21.658920,30.401917,46.845280
7.585139,10.816423,5.489609,8.063441,44.834377,21.765564,30.298954,46.821915
7.582687,10.880701,5.441178,7.890167,44.348186,21.771738,30.135471,46.996105
7.586390,10.922445,5.417814,7.813776,44.099430,21.609102,30.117617,47.318417
7.684214,10.927066,5.315216,7.688893,42.648502,20.667465,29.904985,48.551136
7.715408,10.969024,5.273299,7.693623,42.203293,20.506746,29.806490,48.949677
7.752394,11.076538,5.187683,7.525268,41.089569,20.307323,29.634333,49.610027
7.810788,11.085622,5.104565,7.293778,40.166946,20.111433,29.313732,50.151260
7.877293,10.988922,5.034208,7.067737,39.344807,19.978201,28.869497,50.446152
7.926872,10.933921,5.007680,6.965528,38.968491,19.854284,28.677126,50.434799
8.105497,10.793110,4.772833,6.565818,38.127789,19.538296,28.708092,50.361019
8.209602,10.688561,4.638754,6.262607,37.667610,19.250299,28.786524,50.097313
8.277996,10.422140,4.591838,6.024059,37.503357,19.006605,28.664433,49.600735
8.442670,10.130358,4.646458,5.796570,37.370903,18.734251,28.486069,49.829517
8.463096,9.986727,4.677608,5.683177,36.843540,18.501446,28.239683,49.894672
8.458971,9.813382,4.703974,5.587193,36.112431,18.272196,27.936546,49.615009
8.486219,9.646265,4.822842,5.521667,35.492588,18.113220,27.857428,49.512642
8.501009,9.641099,4.872932,5.535060,35.212177,18.013695,27.820358,49.476692
8.493133,9.706402,4.937935,5.570237,34.954193,17.922125,27.781199,49.519650
8.497365,9.655316,5.029381,5.646288,34.690472,17.816841,27.771206,49.556938
8.537781,9.612463,5.058491,5.671303,34.605743,17.787121,27.750530,49.564106
8.640470,9.540737,5.070905,5.657780,34.425926,17.765049,27.692104,49.670303
8.836459,9.606151,5.112752,5.652205,34.800671,17.862255,27.317736,49.515553
8.849343,9.710119,5.112438,5.629815,34.852211,17.895500,27.186457,49.404358
8.858581,9.981557,5.099529,5.590010,34.902859,17.839634,26.937824,49.200531
8.871207,10.118949,5.087918,5.572461,34.946453,17.838257,26.858761,49.110123
8.882998,10.232582,5.077235,5.556316,34.923302,17.794399,26.756367,49.052887
8.895606,10.337129,5.055538,5.541461,34.840862,17.690275,26.692728,48.964802
8.955622,10.467104,5.010980,5.503644,34.684101,17.439411,26.489840,48.946129
9.007924,10.570791,4.991622,5.348161,34.359737,17.178492,26.261005,49.021088
9.025566,10.623631,5.009351,5.255974,34.190716,17.097057,26.170938,49.150299
9.047618,10.686339,5.040668,5.132930,33.911831,16.966343,26.090534,49.097797
9.018365,10.607857,5.018145,5.126008,34.133354,16.811752,25.928154,48.500465
8.943727,10.586565,4.979556,5.129309,34.041847,16.674465,25.654112,48.183346
8.896466,10.551310,4.963943,5.130764,34.008648,16.618637,25.565279,48.073120
8.810934,10.602196,4.920864,5.089386,33.702805,16.249048,25.415495,47.757496
8.722744,10.673064,4.960996,5.038767,34.046082,16.109926,25.366320,47.310287
8.621037,10.761059,5.022108,5.065580,34.491398,16.077057,25.295591,46.462429
8.594313,10.824438,5.040498,5.020026,34.719872,16.098557,25.329878,46.124817
8.622609,10.964576,5.072983,4.932332,35.104889,16.125780,25.514137,45.425896
8.654191,10.961600,5.137422,4.837677,35.503326,16.099030,25.732805,44.728085
8.617307,10.865181,5.339612,4.622434,36.345131,16.202375,26.154526,43.840408
